-1.65 -1.43408 1.63711 1.62744 1.63711 1.63711 1.63711 -1.65 -1.65 -1.65 -1.65 -1.62744 1.63711 1.63711 1.62422 1.63711 1.63711 -1.65 -1.65 -1.65 -1.65 -1.5501 1.63711 1.63711 1.63711 1.62422 1.63711 -1.65 -1.65 -1.65 -1.65 -1.1376 1.63711 1.62744 1.63711 1.62744 1.62744 -1.65 -1.65 -1.65 -1.65 -1.34707 1.63711 1.63711 1.63711 1.63711 1.63711 -1.65 -1.65 -1.65 -1.65 -1.58877 1.62744 1.63711 1.63711 1.63711 1.63711 -1.65 -1.65 -1.65 -1.65 -1.07314 1.63711 1.63711 1.63711 1.62744 1.63711 -1.65 -1.65 -1.65 -1.65 -1.35352 1.62744 1.63711 1.62422 1.63711 1.63711 -1.65 -1.65 -1.65 -1.65 -1.26328 1.63711 1.63711 1.63711 1.63711 1.63711 -1.65 -1.65 -1.65 -1.65 -1.40508 1.63711 1.63711 1.63711 1.62744 1.63711 -1.65 -1.65 0 -1.65 -1.58877 1.62744 1.63711 1.63711 1.63711 1.63711 -1.65 -1.65 -1.65 -1.65 -1.07314 1.63711 1.63711 1.63711 1.62744 1.63711 -1.65 -1.65 -1.65 -1.65 -1.35352 1.62744 1.63711 1.62422 1.63711 1.63711 -1.65 -1.65 -1.65 -1.65 -1.26328 1.63711 1.63711 1.63711 1.63711 1.63711 -1.65 -1.65 -1.65 -1.65 -1.40508 1.63711 1.63711 1.63711 1.62744 1.63711 -1.65 -1.65 -1.65 -1.65 -1.32129 1.63711 1.63711 1.63711 1.63711 1.63711 -1.65 -1.65 -1.65 -1.65 -1.65 1.62744 1.63711 1.63711 1.63711 1.63711 -1.65 -1.65 -1.65 -1.65 -1.65 1.63711 1.63711 1.63711 1.62744 1.62744 -1.65 -1.65 -1.65 -1.65 -1.01191 1.63711 1.63711 1.63711 1.62744 1.63711 -1.65 -1.65 -1.65 -1.65 -1.65 1.63711 1.63711 1.63711 1.63711 1.62744 -1.65 -1.65 0 -1.65 -1.32129 1.63711 1.63711 1.63711 1.63711 1.63711 -1.65 -1.65 -1.65 -1.65 -1.65 1.62744 1.63711 1.63711 1.63711 1.63711 -1.65 -1.65 -1.65 -1.65 -1.65 1.63711 1.63711 1.63711 1.62744 1.62744 -1.65 -1.65 -1.65 -1.65 -1.01191 1.63711 1.63711 1.63711 1.62744 1.63711 -1.65 -1.65 -1.65 -1.65 -1.65 1.63711 1.63711 1.63711 1.63711 1.62744 -1.65 -1.65 -1.65 -1.65 -1.65 1.63711 1.63711 1.63711 1.62744 1.62744 -1.65 -1.65 -1.65 -1.65 -1.31807 1.63711 1.63711 1.62744 1.63711 1.63711 -1.65 -1.65 -1.65 -1.65 -1.31807 1.63711 1.63711 1.62744 1.63711 1.63711 -1.65 -1.65 -1.65 -1.65 -1.16016 1.63711 1.63711 1.63711 1.63711 1.63711 -1.65 -1.65 -1.65 -1.65 -0.15791 1.62744 1.63711 1.63711 1.62422 1.63711 -1.65 -1.65 0 -1.65 -1.65 1.63711 1.63711 1.63711 1.62744 1.62744 -1.65 -1.65 -1.65 -1.65 -1.31807 1.63711 1.63711 1.62744 1.63711 1.63711 -1.65 -1.65 -1.65 -1.65 -1.31807 1.63711 1.63711 1.62744 1.63711 1.63711 -1.65 -1.65 -1.65 -1.65 -1.16016 1.63711 1.63711 1.63711 1.63711 1.63711 -1.65 -1.65 -1.65 -1.65 -0.15791 1.62744 1.63711 1.63711 1.62422 1.63711 -1.65 -1.65 -1.65 -1.65 -1.22783 1.63711 1.63711 1.63711 1.62744 1.63711 -1.65 -1.65 -1.65 -1.65 -1.27939 1.63711 1.63711 1.63711 1.63711 1.62744 -1.65 -1.65 -1.65 -1.65 -0.828223 1.63711 1.63711 1.63711 1.63711 1.63711 -1.65 -1.65 -1.65 -1.65 -0.573633 1.63711 1.62744 1.63711 1.62744 1.63711 -1.65 -1.65 -1.65 -1.65 -0.93457 1.62422 1.62744 1.63711 1.63711 1.63711 -1.65 -1.65 0 -1.65 -1.22783 1.63711 1.63711 1.63711 1.62744 1.63711 -1.65 -1.65 -1.65 -1.65 -1.27939 1.63711 1.63711 1.63711 1.63711 1.62744 -1.65 -1.65 -1.65 -1.65 -0.828223 1.63711 1.63711 1.63711 1.63711 1.63711 -1.65 -1.65 -1.65 -1.65 -0.573633 1.63711 1.62744 1.63711 1.62744 1.63711 -1.65 -1.65 -1.65 -1.65 -0.93457 1.62422 1.62744 1.63711 1.63711 1.63711 -1.65 -1.65 -1.65 -1.65 -0.744434 1.63711 1.63711 1.62744 1.62744 1.62422 -1.65 -1.65 -1.65 -1.65 -0.77666 1.63711 1.63711 1.63711 1.62744 1.63711 -1.65 -1.65 -1.65 -1.65 -1.33096 1.63711 1.63711 1.63711 1.63711 1.63711 -1.65 -1.65 -1.65 -1.65 -1.56943 1.63711 1.63711 1.63711 1.63711 1.63711 -1.65 -1.65 -1.65 -1.65 -0.953906 1.63711 1.63711 1.63711 1.63711 1.63711 -1.65 -1.65 0 -1.65 -0.744434 1.63711 1.63711 1.62744 1.62744 1.62422 -1.65 -1.65 -1.65 -1.65 -0.77666 1.63711 1.63711 1.63711 1.62744 1.63711 -1.65 -1.65 -1.65 -1.65 -1.33096 1.63711 1.63711 1.63711 1.63711 1.63711 -1.65 -1.65 -1.65 -1.65 -1.56943 1.63711 1.63711 1.63711 1.63711 1.63711 -1.65 -1.65 -1.65 -1.65 -0.953906 1.63711 1.63711 1.63711 1.63711 1.63711 -1.65 -1.65 -1.65 -1.65 -1.52432 1.63711 1.63711 1.62744 1.62744 1.63711 -1.65 -1.65 -1.65 -1.65 -0.286816 1.63711 1.63711 1.63711 1.63711 1.62422 -1.65 -1.65 -1.65 -1.65 -0.905566 1.62744 1.62744 1.63711 1.63711 1.62744 -1.65 -1.65 -1.65 -1.65 -0.879785 1.63711 1.63711 1.63711 1.62422 1.63711 -1.65 -1.65 -1.65 -1.65 0.554297 1.63711 1.63711 1.63711 1.62744 1.62744 -1.65 -1.65 0 -1.65 -1.52432 1.63711 1.63711 1.62744 1.62744 1.63711 -1.65 -1.65 -1.65 -1.65 -0.286816 1.63711 1.63711 1.63711 1.63711 1.62422 -1.65 -1.65 -1.65 -1.65 -0.905566 1.62744 1.62744 1.63711 1.63711 1.62744 -1.65 -1.65 -1.65 -1.65 -0.879785 1.63711 1.63711 1.63711 1.62422 1.63711 -1.65 -1.65 -1.65 -1.65 0.554297 1.63711 1.63711 1.63711 1.62744 1.62744 -1.65 -1.65 -1.65 -1.65 -0.228809 1.63711 1.63711 1.63711 1.62744 1.62744 -1.65 -1.65 -1.65 -1.65 -0.470508 1.63711 1.63711 1.62744 1.62744 1.62744 -1.65 -1.65 -1.65 -1.65 -0.77666 1.63711 1.63711 1.63711 1.62744 1.62744 -1.65 -1.65 -1.65 -1.65 -0.383496 1.63711 1.63711 1.63711 1.62422 1.63711 -1.65 -1.65 -1.65 -1.65 -0.57041 1.63711 1.63711 1.63711 1.63711 1.62422 -1.65 -1.65 0 -1.65 -0.228809 1.63711 1.63711 1.63711 1.62744 1.62744 -1.65 -1.65 -1.65 -1.65 -0.470508 1.63711 1.63711 1.62744 1.62744 1.62744 -1.65 -1.65 -1.65 -1.65 -0.77666 1.63711 1.63711 1.63711 1.62744 1.62744 -1.65 -1.65 -1.65 -1.65 -0.383496 1.63711 1.63711 1.63711 1.62422 1.63711 -1.65 -1.65 -1.65 -1.65 -0.57041 1.63711 1.63711 1.63711 1.63711 1.62422 -1.65 -1.65 -1.65 -1.65 -0.331934 1.63711 1.63711 1.63711 1.63711 1.62744 -1.65 -1.65 -1.65 -1.65 -0.992578 1.63711 1.63711 1.62744 1.63711 1.62744 -1.65 -1.65 -1.65 -1.65 -0.515625 1.63711 1.63711 1.63711 1.63711 1.63711 -1.65 -1.65 -1.65 -1.65 -0.596191 1.63711 1.62744 1.62744 1.62744 1.63711 -1.65 -1.65 -1.65 -1.65 -0.725098 1.63711 1.63711 1.63711 1.63711 1.62744 -1.65 -1.65 0 -1.65 -0.331934 1.63711 1.63711 1.63711 1.63711 1.62744 -1.65 -1.65 -1.65 -1.65 -0.992578 1.63711 1.63711 1.62744 1.63711 1.62744 -1.65 -1.65 -1.65 -1.65 -0.515625 1.63711 1.63711 1.63711 1.63711 1.63711 -1.65 -1.65 -1.65 -1.65 -0.596191 1.63711 1.62744 1.62744 1.62744 1.63711 -1.65 -1.65 -1.65 -1.65 -0.725098 1.63711 1.63711 1.63711 1.63711 1.62744 -1.65 -1.65 -1.65 -1.65 -0.953906 1.62744 1.63711 1.63711 1.62422 1.63711 -1.65 -1.65 -1.65 -1.65 -1.16016 1.63711 1.63711 1.63711 1.63711 1.62744 -1.65 -1.65 -1.65 -1.65 -0.928125 1.63711 1.63711 1.63711 1.63711 1.63711 -1.65 -1.65 -1.65 -1.65 -0.734766 1.63711 1.63711 1.63711 1.63711 1.63711 -1.65 -1.65 -1.65 -1.65 -0.596191 1.62422 1.63711 1.62744 1.63711 1.63711 -1.65 -1.65 0 -1.65 -0.953906 1.62744 1.63711 1.63711 1.62422 1.63711 -1.65 -1.65 -1.65 -1.65 -1.16016 1.63711 1.63711 1.63711 1.63711 1.62744 -1.65 -1.65 -1.65 -1.65 -0.928125 1.63711 1.63711 1.63711 1.63711 1.63711 -1.65 -1.65 -1.65 -1.65 -0.734766 1.63711 1.63711 1.63711 1.63711 1.63711 -1.65 -1.65 -1.65 -1.65 -0.596191 1.62422 1.63711 1.62744 1.63711 1.63711 -1.65 -1.65 -1.65 -1.65 -1.44697 1.62744 1.63711 1.62744 1.63711 1.63711 -1.65 -1.65 -1.65 -1.65 -1.12471 1.63711 1.63711 1.62744 1.62744 1.63711 -1.65 -1.65 -1.65 -1.65 -1.05703 1.63711 1.63711 1.62422 1.63711 1.63711 -1.65 -1.65 -1.65 -1.65 -1.1376 1.62744 1.63711 1.63711 1.62744 1.62744 -1.65 -1.65 -1.65 -1.65 -0.515625 1.63711 1.62422 1.62422 1.63711 1.62744 -1.65 -1.65 0 -1.65 -1.44697 1.62744 1.63711 1.62744 1.63711 1.63711 -1.65 -1.65 -1.65 -1.65 -1.12471 1.63711 1.63711 1.62744 1.62744 1.63711 -1.65 -1.65 -1.65 -1.65 -1.05703 1.63711 1.63711 1.62422 1.63711 1.63711 -1.65 -1.65 -1.65 -1.65 -1.1376 1.62744 1.63711 1.63711 1.62744 1.62744 -1.65 -1.65 -1.65 -1.65 -0.515625 1.63711 1.62422 1.62422 1.63711 1.62744 -1.65 -1.65 -1.65 -1.64678 1.60811 1.62422 1.63711 1.62744 1.63711 1.62422 -1.65 -1.65 -1.65 -1.65 0.0225586 1.62422 1.64355 1.63711 1.62744 1.63711 -1.65 -1.65 -1.65 -1.65 -1.38252 1.62744 1.63711 1.63711 1.63711 1.63711 -1.65 -1.65 -1.65 -1.65 -1.00869 1.63711 1.63711 1.63711 1.62422 1.62744 -1.65 -1.65 -1.65 -1.65 -0.905566 1.62744 1.63711 1.63711 1.62744 1.63711 -1.65 -1.65 0 -1.64678 1.60811 1.62422 1.63711 1.62744 1.63711 1.62422 -1.65 -1.65 -1.65 -1.65 0.0225586 1.62422 1.64355 1.63711 1.62744 1.63711 -1.65 -1.65 -1.65 -1.65 -1.38252 1.62744 1.63711 1.63711 1.63711 1.63711 -1.65 -1.65 -1.65 -1.65 -1.00869 1.63711 1.63711 1.63711 1.62422 1.62744 -1.65 -1.65 -1.65 -1.65 -0.905566 1.62744 1.63711 1.63711 1.62744 1.63711 -1.65 -1.65 -1.65 -1.65 0.331934 1.63711 1.63711 1.63711 1.63711 1.63711 -1.65 -1.65 -1.65 -1.64678 1.26006 1.63711 1.63711 1.62744 1.63711 1.63711 -1.65 -1.65 -1.65 -1.65 -0.312598 1.63711 1.63711 1.63711 1.62744 1.63711 -1.65 -1.65 -1.65 -1.65 -0.270703 1.63711 1.63711 1.63711 1.63711 1.62744 -1.65 -1.65 -1.65 -1.65 0.203027 1.63711 1.63711 1.63711 1.63711 1.63711 -1.65 -1.65 0 -1.65 0.331934 1.63711 1.63711 1.63711 1.63711 1.63711 -1.65 -1.65 -1.65 -1.64678 1.26006 1.63711 1.63711 1.62744 1.63711 1.63711 -1.65 -1.65 -1.65 -1.65 -0.312598 1.63711 1.63711 1.63711 1.62744 1.63711 -1.65 -1.65 -1.65 -1.65 -0.270703 1.63711 1.63711 1.63711 1.63711 1.62744 -1.65 -1.65 -1.65 -1.65 0.203027 1.63711 1.63711 1.63711 1.63711 1.63711 -1.65 -1.65 -1.65 -1.65 -0.183691 1.62744 1.63711 1.63711 1.62422 1.63711 -1.65 -1.65 -1.65 -1.65 -0.367383 1.62744 1.63711 1.62744 1.63711 1.63711 -1.65 -1.65 -1.65 -1.65 -0.883008 1.63711 1.63711 1.63711 1.63711 1.63711 -1.65 -1.65 -1.65 -1.65 -0.699316 1.63711 1.63711 1.63711 1.63711 1.63711 -1.65 -1.65 -1.65 -1.65 -0.228809 1.63711 1.63711 1.63711 1.63711 1.62744 -1.65 -1.65 0 -1.65 -0.183691 1.62744 1.63711 1.63711 1.62422 1.63711 -1.65 -1.65 -1.65 -1.65 -0.367383 1.62744 1.63711 1.62744 1.63711 1.63711 -1.65 -1.65 -1.65 -1.65 -0.883008 1.63711 1.63711 1.63711 1.63711 1.63711 -1.65 -1.65 -1.65 -1.65 -0.699316 1.63711 1.63711 1.63711 1.63711 1.63711 -1.65 -1.65 -1.65 -1.65 -0.228809 1.63711 1.63711 1.63711 1.63711 1.62744 -1.65 -1.65 -1.65 -1.64678 0.112793 1.63711 1.63711 1.63711 1.63711 1.63711 -1.65 -1.65 -1.65 -1.64678 -0.512402 1.63711 1.63711 1.63711 1.63711 1.63711 -1.65 -1.65 -1.65 -1.65 -0.0999023 1.63711 1.64355 1.62744 1.63711 1.62744 -1.65 -1.65 -1.65 -1.65 -0.725098 1.62744 1.63711 1.63711 1.63711 1.63711 -1.65 -1.65 -1.65 -1.64678 1.59844 1.63711 1.63711 1.63711 1.63711 1.63711 -1.65 -1.65 0 -1.64678 0.112793 1.63711 1.63711 1.63711 1.63711 1.63711 -1.65 -1.65 -1.65 -1.64678 -0.512402 1.63711 1.63711 1.63711 1.63711 1.63711 -1.65 -1.65 -1.65 -1.65 -0.0999023 1.63711 1.64355 1.62744 1.63711 1.62744 -1.65 -1.65 -1.65 -1.65 -0.725098 1.62744 1.63711 1.63711 1.63711 1.63711 -1.65 -1.65 -1.65 -1.64678 1.59844 1.63711 1.63711 1.63711 1.63711 1.63711 -1.65 -1.65 -1.65 -1.64678 0.309375 1.63711 1.63711 1.63711 1.63711 1.62744 -1.65 -1.65 -1.65 -1.64678 0.180469 1.63711 1.64355 1.63711 1.62744 1.62744 -1.65 -1.65 -1.65 -1.65 -0.438281 1.63711 1.63711 1.63711 1.62744 1.63711 -1.65 -1.65 -1.65 -1.64678 -0.77666 1.62744 1.63711 1.63711 1.63711 1.63711 -1.65 -1.65 -1.65 -1.65 -0.438281 1.62744 1.63711 1.63711 1.62744 1.63711 -1.65 -1.65 0 -1.64678 0.309375 1.63711 1.63711 1.63711 1.63711 1.62744 -1.65 -1.65 -1.65 -1.64678 0.180469 1.63711 1.64355 1.63711 1.62744 1.62744 -1.65 -1.65 -1.65 -1.65 -0.438281 1.63711 1.63711 1.63711 1.62744 1.63711 -1.65 -1.65 -1.65 -1.64678 -0.77666 1.62744 1.63711 1.63711 1.63711 1.63711 -1.65 -1.65 -1.65 -1.65 -0.438281 1.62744 1.63711 1.63711 1.62744 1.63711 -1.65 -1.65 -1.65 -1.64678 -0.4125 1.63711 1.64355 1.63711 1.63711 1.63711 -1.65 -1.65 -1.65 -1.65 -0.625195 1.62744 1.64355 1.63711 1.63711 1.63711 -1.65 -1.65 -1.65 -1.65 -1.11504 1.63711 1.62744 1.62422 1.62744 1.63711 -1.65 -1.65 -1.65 -1.65 -0.183691 1.62744 1.63711 1.63711 1.63711 1.63711 -1.65 -1.65 -1.65 -1.65 -0.493066 1.63711 1.63711 1.63711 1.63711 1.63711 -1.65 -1.65 0 -1.64678 -0.4125 1.63711 1.64355 1.63711 1.63711 1.63711 -1.65 -1.65 -1.65 -1.65 -0.625195 1.62744 1.64355 1.63711 1.63711 1.63711 -1.65 -1.65 -1.65 -1.65 -1.11504 1.63711 1.62744 1.62422 1.62744 1.63711 -1.65 -1.65 -1.65 -1.65 -0.183691 1.62744 1.63711 1.63711 1.63711 1.63711 -1.65 -1.65 -1.65 -1.65 -0.493066 1.63711 1.63711 1.63711 1.63711 1.63711 -1.65 -1.65 -1.65 -1.64678 -0.286816 1.62744 1.64355 1.63711 1.63711 1.63711 -1.65 -1.65 -1.65 -1.65 -1.24072 1.63711 1.63711 1.62422 1.62744 1.62744 -1.65 -1.65 -1.65 -1.65 -0.55752 1.62744 1.63711 1.62744 1.63711 1.63711 -1.65 -1.65 -1.65 -1.64678 0.721875 1.63711 1.63711 1.62744 1.63711 1.63711 -1.65 -1.65 -1.65 -1.64678 0.657422 1.63711 1.63711 1.62744 1.63711 1.63711 -1.65 -1.65 0 -1.64678 -0.286816 1.62744 1.64355 1.63711 1.63711 1.63711 -1.65 -1.65 -1.65 -1.65 -1.24072 1.63711 1.63711 1.62422 1.62744 1.62744 -1.65 -1.65 -1.65 -1.65 -0.55752 1.62744 1.63711 1.62744 1.63711 1.63711 -1.65 -1.65 -1.65 -1.64678 0.721875 1.63711 1.63711 1.62744 1.63711 1.63711 -1.65 -1.65 -1.65 -1.64678 0.657422 1.63711 1.63711 1.62744 1.63711 1.63711 -1.65 -1.65 -1.65 -1.64678 1.18594 1.63711 1.64355 1.63711 1.62744 1.62744 -1.65 -1.65 -1.65 -1.65 -0.828223 1.63711 1.63711 1.63711 1.62744 1.63711 -1.65 -1.65 -1.65 -1.64678 -0.183691 1.62744 1.63711 1.63711 1.62744 1.63711 -1.65 -1.65 -1.65 -1.64678 -0.203027 1.63711 1.64355 1.63711 1.63711 1.63711 -1.65 -1.65 -1.65 -1.65 -0.802441 1.62744 1.63711 1.63711 1.63711 1.63711 -1.65 -1.65 0 -1.64678 1.18594 1.63711 1.64355 1.63711 1.62744 1.62744 -1.65 -1.65 -1.65 -1.65 -0.828223 1.63711 1.63711 1.63711 1.62744 1.63711 -1.65 -1.65 -1.65 -1.64678 -0.183691 1.62744 1.63711 1.63711 1.62744 1.63711 -1.65 -1.65 -1.65 -1.64678 -0.203027 1.63711 1.64355 1.63711 1.63711 1.63711 -1.65 -1.65 -1.65 -1.65 -0.802441 1.62744 1.63711 1.63711 1.63711 1.63711 -1.65 -1.65 -1.65 -1.64678 0.309375 1.62744 1.63711 1.63711 1.63711 1.63711 -1.65 -1.65 -1.65 -1.64678 0.0902344 1.63711 1.63711 1.62744 1.63711 1.63711 -1.65 -1.65 -1.65 -1.64678 0.180469 1.62744 1.64355 1.63711 1.62744 1.63711 -1.65 -1.65 -1.65 -1.64678 -0.599414 1.63711 1.63711 1.63711 1.62744 1.63711 -1.65 -1.65 -1.65 -1.64678 0.538184 1.63711 1.63711 1.63711 1.63711 1.62422 -1.65 -1.65 0 -1.64678 0.309375 1.62744 1.63711 1.63711 1.63711 1.63711 -1.65 -1.65 -1.65 -1.64678 0.0902344 1.63711 1.63711 1.62744 1.63711 1.63711 -1.65 -1.65 -1.65 -1.64678 0.180469 1.62744 1.64355 1.63711 1.62744 1.63711 -1.65 -1.65 -1.65 -1.64678 -0.599414 1.63711 1.63711 1.63711 1.62744 1.63711 -1.65 -1.65 -1.65 -1.64678 0.538184 1.63711 1.63711 1.63711 1.63711 1.62422 -1.65 -1.65 -1.65 -1.64678 0.435059 1.62744 1.63711 1.62422 1.63711 1.62422 -1.65 -1.65 -1.65 -1.64678 0.370605 1.62744 1.64355 1.63711 1.63711 1.63711 -1.65 -1.65 -1.65 -1.64678 0.25459 1.63711 1.64355 1.63711 1.63711 1.63711 -1.65 -1.65 -1.65 -1.64678 -0.15791 1.63711 1.64355 1.63711 1.62422 1.62422 -1.65 -1.65 -1.65 -1.65 -0.35127 1.63711 1.63711 1.63711 1.63711 1.62744 -1.65 -1.65 0 -1.64678 0.435059 1.62744 1.63711 1.62422 1.63711 1.62422 -1.65 -1.65 -1.65 -1.64678 0.370605 1.62744 1.64355 1.63711 1.63711 1.63711 -1.65 -1.65 -1.65 -1.64678 0.25459 1.63711 1.64355 1.63711 1.63711 1.63711 -1.65 -1.65 -1.65 -1.64678 -0.15791 1.63711 1.64355 1.63711 1.62422 1.62422 -1.65 -1.65 -1.65 -1.65 -0.35127 1.63711 1.63711 1.63711 1.63711 1.62744 -1.65 -1.65 -1.65 -1.64678 -0.238477 1.62744 1.64355 1.62744 1.62744 1.63711 -1.65 -1.65 -1.65 -1.64678 0.251367 1.63711 1.64355 1.63711 1.63711 1.63711 -1.65 -1.65 -1.65 -1.64678 -0.128906 1.63711 1.64355 1.63711 1.62744 1.63711 -1.65 -1.65 -1.65 -1.64678 -0.222363 1.63711 1.64355 1.63711 1.63711 1.63711 -1.65 -1.65 -1.65 -1.64678 -0.196582 1.63711 1.64355 1.62744 1.63711 1.63711 -1.65 -1.65 0 -1.64678 -0.238477 1.62744 1.64355 1.62744 1.62744 1.63711 -1.65 -1.65 -1.65 -1.64678 0.251367 1.63711 1.64355 1.63711 1.63711 1.63711 -1.65 -1.65 -1.65 -1.64678 -0.128906 1.63711 1.64355 1.63711 1.62744 1.63711 -1.65 -1.65 -1.65 -1.64678 -0.222363 1.63711 1.64355 1.63711 1.63711 1.63711 -1.65 -1.65 -1.65 -1.64678 -0.196582 1.63711 1.64355 1.62744 1.63711 1.63711 -1.65 -1.65 -1.65 -1.64678 -0.512402 1.63711 1.64355 1.63711 1.62744 1.63711 -1.65 -1.65 -1.65 -1.64678 0.673535 1.63711 1.63711 1.63711 1.62422 1.62744 -1.65 -1.65 -1.65 -1.64678 0.567187 1.62744 1.63711 1.62744 1.63711 1.63711 -1.65 -1.65 -1.65 -1.64678 0.409277 1.62744 1.63711 1.62744 1.63711 1.63711 -1.65 -1.65 -1.65 -1.64678 1.17305 1.63711 1.63711 1.63711 1.62744 1.63711 -1.65 -1.65 0 -1.64678 -0.512402 1.63711 1.64355 1.63711 1.62744 1.63711 -1.65 -1.65 -1.65 -1.64678 0.673535 1.63711 1.63711 1.63711 1.62422 1.62744 -1.65 -1.65 -1.65 -1.64678 0.567187 1.62744 1.63711 1.62744 1.63711 1.63711 -1.65 -1.65 -1.65 -1.64678 0.409277 1.62744 1.63711 1.62744 1.63711 1.63711 -1.65 -1.65 -1.65 -1.64678 1.17305 1.63711 1.63711 1.63711 1.62744 1.63711 -1.65 -1.65 -1.65 -1.64678 1.56621 1.63711 1.64355 1.63711 1.62744 1.63711 -1.65 -1.65 -1.65 -1.64678 0.786328 1.62744 1.64355 1.62744 1.63711 1.63711 -1.65 -1.65 -1.65 -1.64678 0.937793 1.63711 1.63711 1.63711 1.63711 1.63711 -1.65 -1.65 -1.65 -1.64678 1.59844 1.63711 1.63711 1.62422 1.62744 1.62744 -1.65 -1.65 -1.65 -1.64678 1.3793 1.62744 1.64355 1.62744 1.63711 1.63711 -1.65 -1.65 0 -1.64678 1.56621 1.63711 1.64355 1.63711 1.62744 1.63711 -1.65 -1.65 -1.65 -1.64678 0.786328 1.62744 1.64355 1.62744 1.63711 1.63711 -1.65 -1.65 -1.65 -1.64678 0.937793 1.63711 1.63711 1.63711 1.63711 1.63711 -1.65 -1.65 -1.65 -1.64678 1.59844 1.63711 1.63711 1.62422 1.62744 1.62744 -1.65 -1.65 -1.65 -1.64678 1.3793 1.62744 1.64355 1.62744 1.63711 1.63711 -1.65 -1.65 -1.65 -1.64678 1.10859 1.63711 1.64355 1.63711 1.63711 1.63711 -1.65 -1.65 -1.65 -1.64678 0.0773437 1.63711 1.63711 1.63711 1.62744 1.63711 -1.65 -1.65 -1.65 -1.64678 -0.232031 1.63711 1.63711 1.62744 1.62744 1.63711 -1.65 -1.65 -1.65 -1.64678 1.38574 1.62744 1.63711 1.63711 1.62744 1.63711 -1.65 -1.65 -1.65 -1.64678 0.721875 1.63711 1.63711 1.62744 1.63711 1.63711 -1.65 -1.65 0 -1.64678 1.10859 1.63711 1.64355 1.63711 1.63711 1.63711 -1.65 -1.65 -1.65 -1.64678 0.0773437 1.63711 1.63711 1.63711 1.62744 1.63711 -1.65 -1.65 -1.65 -1.64678 -0.232031 1.63711 1.63711 1.62744 1.62744 1.63711 -1.65 -1.65 -1.65 -1.64678 1.38574 1.62744 1.63711 1.63711 1.62744 1.63711 -1.65 -1.65 -1.65 -1.64678 0.721875 1.63711 1.63711 1.62744 1.63711 1.63711 -1.65 -1.65 -1.65 -1.64678 0.847559 1.63711 1.63711 1.63711 1.63711 1.62744 -1.65 -1.65 -1.65 -1.64678 0.57041 1.62744 1.64355 1.62422 1.63711 1.62744 -1.65 -1.65 -1.65 -1.64678 1.61133 1.62744 1.63711 1.63711 1.62422 1.63711 -1.65 -1.65 -1.65 -1.64678 1.62422 1.62744 1.63711 1.63711 1.63711 1.63711 -1.65 -1.65 -1.65 -1.64678 1.61777 1.62422 1.63711 1.62422 1.63711 1.62744 -1.65 -1.65 0 -1.64678 0.847559 1.63711 1.63711 1.63711 1.63711 1.62744 -1.65 -1.65 -1.65 -1.64678 0.57041 1.62744 1.64355 1.62422 1.63711 1.62744 -1.65 -1.65 -1.65 -1.64678 1.61133 1.62744 1.63711 1.63711 1.62422 1.63711 -1.65 -1.65 -1.65 -1.64678 1.62422 1.62744 1.63711 1.63711 1.63711 1.63711 -1.65 -1.65 -1.65 -1.64678 1.61777 1.62422 1.63711 1.62422 1.63711 1.62744 -1.65 -1.65 -1.65 -1.64678 0.773438 1.63711 1.63711 1.63711 1.63711 1.63711 -1.65 -1.65 -1.65 -1.64678 1.60166 1.62422 1.63711 1.63711 1.63711 1.63711 -1.65 -1.65 -1.65 -1.64678 1.59844 1.63711 1.63711 1.62744 1.63711 1.62744 -1.65 -1.65 -1.65 -1.64678 0.525293 1.63711 1.64355 1.62422 1.63711 1.63711 -1.65 -1.65 -1.65 -1.64678 1.59844 1.63711 1.64355 1.63711 1.63711 1.62422 -1.65 -1.65 0 -1.64678 0.773438 1.63711 1.63711 1.63711 1.63711 1.63711 -1.65 -1.65 -1.65 -1.64678 1.60166 1.62422 1.63711 1.63711 1.63711 1.63711 -1.65 -1.65 -1.65 -1.64678 1.59844 1.63711 1.63711 1.62744 1.63711 1.62744 -1.65 -1.65 -1.65 -1.64678 0.525293 1.63711 1.64355 1.62422 1.63711 1.63711 -1.65 -1.65 -1.65 -1.64678 1.59844 1.63711 1.64355 1.63711 1.63711 1.62422 -1.65 -1.65 -1.65 -1.64678 1.59844 1.63711 1.63711 1.63711 1.63711 1.62744 -1.65 -1.65 -1.65 -1.64678 1.29873 1.63711 1.63711 1.63711 1.63711 1.63711 -1.65 -1.65 -1.65 -1.64678 1.61133 1.63711 1.64355 1.62744 1.63711 1.62744 -1.65 -1.65 -1.65 -1.64678 1.60166 1.63711 1.63711 1.63711 1.63711 1.63711 -1.65 -1.65 -1.65 -1.64678 1.60811 1.62744 1.63711 1.62744 1.62422 1.63711 -1.65 -1.65 0 -1.64678 1.59844 1.63711 1.63711 1.63711 1.63711 1.62744 -1.65 -1.65 -1.65 -1.64678 1.29873 1.63711 1.63711 1.63711 1.63711 1.63711 -1.65 -1.65 -1.65 -1.64678 1.61133 1.63711 1.64355 1.62744 1.63711 1.62744 -1.65 -1.65 -1.65 -1.64678 1.60166 1.63711 1.63711 1.63711 1.63711 1.63711 -1.65 -1.65 -1.65 -1.64678 1.60811 1.62744 1.63711 1.62744 1.62422 1.63711 -1.65 -1.65 -1.65 -1.64678 1.44375 1.63711 1.63711 1.63711 1.63711 1.63711 -1.65 -1.65 -1.65 -1.64678 1.01836 1.63711 1.64355 1.63711 1.62744 1.63711 -1.65 -1.65 -1.65 -1.64678 1.59844 1.63711 1.63711 1.62422 1.63711 1.62744 -1.65 -1.65 -1.65 -1.64678 1.60166 1.63711 1.63711 1.63711 1.63711 1.62744 -1.65 -1.65 -1.65 -1.64678 1.59844 1.62744 1.63711 1.62744 1.62744 1.63711 -1.65 -1.65 0 -1.64678 1.44375 1.63711 1.63711 1.63711 1.63711 1.63711 -1.65 -1.65 -1.65 -1.64678 1.01836 1.63711 1.64355 1.63711 1.62744 1.63711 -1.65 -1.65 -1.65 -1.64678 1.59844 1.63711 1.63711 1.62422 1.63711 1.62744 -1.65 -1.65 -1.65 -1.64678 1.60166 1.63711 1.63711 1.63711 1.63711 1.62744 -1.65 -1.65 -1.65 -1.64678 1.59844 1.62744 1.63711 1.62744 1.62744 1.63711 -1.65 -1.65 -1.65 -1.64678 1.36318 1.62744 1.62744 1.63711 1.62744 1.62422 -1.65 -1.65 -1.65 -1.64678 1.24717 1.63711 1.63711 1.62744 1.62744 1.63711 -1.65 -1.65 -1.65 -1.64678 1.10859 1.63711 1.63711 1.63711 1.63711 1.63711 -1.65 -1.65 -1.65 -1.64678 1.59844 1.62744 1.63711 1.63711 1.62744 1.63711 -1.65 -1.65 -1.65 -1.64678 1.60811 1.63711 1.63711 1.62422 1.63711 1.63711 -1.65 -1.65 0 -1.64678 1.36318 1.62744 1.62744 1.63711 1.62744 1.62422 -1.65 -1.65 -1.65 -1.64678 1.24717 1.63711 1.63711 1.62744 1.62744 1.63711 -1.65 -1.65 -1.65 -1.64678 1.10859 1.63711 1.63711 1.63711 1.63711 1.63711 -1.65 -1.65 -1.65 -1.64678 1.59844 1.62744 1.63711 1.63711 1.62744 1.63711 -1.65 -1.65 -1.65 -1.64678 1.60811 1.63711 1.63711 1.62422 1.63711 1.63711 -1.65 -1.65 -1.65 -1.64678 1.60811 1.63711 1.63711 1.63711 1.62744 1.62744 -1.65 -1.65 -1.65 -1.64678 1.5501 1.63711 1.63711 1.62744 1.63711 1.63711 -1.65 -1.65 -1.65 -1.64678 1.60811 1.63711 1.63711 1.63711 1.63711 1.62422 -1.65 -1.65 -1.65 -1.64678 0.950684 1.63711 1.63711 1.62744 1.63711 1.62422 -1.65 -1.65 -1.65 -1.64678 1.60811 1.63711 1.63711 1.62744 1.63711 1.63711 -1.65 -1.65 0 -1.64678 1.60811 1.63711 1.63711 1.63711 1.62744 1.62744 -1.65 -1.65 -1.65 -1.64678 1.5501 1.63711 1.63711 1.62744 1.63711 1.63711 -1.65 -1.65 -1.65 -1.64678 1.60811 1.63711 1.63711 1.63711 1.63711 1.62422 -1.65 -1.65 -1.65 -1.64678 0.950684 1.63711 1.63711 1.62744 1.63711 1.62422 -1.65 -1.65 -1.65 -1.64678 1.60811 1.63711 1.63711 1.62744 1.63711 1.63711 -1.65 -1.65 -1.65 -1.64678 1.61133 1.63711 1.63711 1.63711 1.63711 1.62744 -1.65 -1.65 -1.65 -1.64678 1.60811 1.62744 1.63711 1.62744 1.62744 1.63711 -1.65 -1.65 -1.65 -1.64678 1.54688 1.63711 1.63711 1.63711 1.63711 1.63711 -1.65 -1.65 -1.65 -1.64678 1.62422 1.63711 1.63711 1.63711 1.63711 1.63711 -1.65 -1.65 -1.65 -1.64678 1.59844 1.62744 1.63711 1.63711 1.63711 1.62744 -1.65 -1.65 0 -1.64678 1.61133 1.63711 1.63711 1.63711 1.63711 1.62744 -1.65 -1.65 -1.65 -1.64678 1.60811 1.62744 1.63711 1.62744 1.62744 1.63711 -1.65 -1.65 -1.65 -1.64678 1.54688 1.63711 1.63711 1.63711 1.63711 1.63711 -1.65 -1.65 -1.65 -1.64678 1.62422 1.63711 1.63711 1.63711 1.63711 1.63711 -1.65 -1.65 -1.65 -1.64678 1.59844 1.62744 1.63711 1.63711 1.63711 1.62744 -1.65 -1.65 -1.65 -1.64678 1.59844 1.62744 1.63711 1.63711 1.62744 1.62744 -1.65 -1.65 -1.65 -1.64678 0.937793 1.63711 1.63711 1.63711 1.63389 1.62744 -1.65 -1.65 -1.65 -1.64678 1.62422 1.63711 1.63711 1.63711 1.63711 1.63711 -1.65 -1.65 -1.65 -1.64678 1.62422 1.63711 1.63711 1.63711 1.63389 1.63711 -1.65 -1.65 -1.65 -1.64678 1.62422 1.63711 1.63711 1.62744 1.63711 1.62744 -1.65 -1.65 0 -1.64678 1.59844 1.62744 1.63711 1.63711 1.62744 1.62744 -1.65 -1.65 -1.65 -1.64678 0.937793 1.63711 1.63711 1.63711 1.63389 1.62744 -1.65 -1.65 -1.65 -1.64678 1.62422 1.63711 1.63711 1.63711 1.63711 1.63711 -1.65 -1.65 -1.65 -1.64678 1.62422 1.63711 1.63711 1.63711 1.63389 1.63711 -1.65 -1.65 -1.65 -1.64678 1.62422 1.63711 1.63711 1.62744 1.63711 1.62744 -1.65 -1.65 -1.65 -1.64678 1.62422 1.63711 1.63711 1.63711 1.63389 1.63711 -1.65 -1.65 -1.65 -1.64678 1.62422 1.63711 1.63711 1.63711 1.62744 1.63711 -1.65 -1.65 -1.65 -1.64678 1.62422 1.63711 1.62422 1.62744 1.63711 1.62744 -1.65 -1.65 -1.65 -1.64678 1.60488 1.62744 1.63711 1.62422 1.62744 1.62744 -1.65 -1.65 -1.65 -1.64678 1.61133 1.63711 1.63711 1.63711 1.62744 1.63711 -1.65 -1.65 0 -1.64678 1.62422 1.63711 1.63711 1.63711 1.63389 1.63711 -1.65 -1.65 -1.65 -1.64678 1.62422 1.63711 1.63711 1.63711 1.62744 1.63711 -1.65 -1.65 -1.65 -1.64678 1.62422 1.63711 1.62422 1.62744 1.63711 1.62744 -1.65 -1.65 -1.65 -1.64678 1.60488 1.62744 1.63711 1.62422 1.62744 1.62744 -1.65 -1.65 -1.65 -1.64678 1.61133 1.63711 1.63711 1.63711 1.62744 1.63711 -1.65 -1.65 -1.65 -1.64678 1.62422 1.62422 1.63389 1.62422 1.63389 1.62744 -1.65 -1.65 -1.65 -1.64678 1.60811 1.62744 1.63711 1.63711 1.63711 1.63711 -1.65 -1.65 -1.65 -1.64678 1.60811 1.62744 1.63711 1.62744 1.62744 1.62744 -1.65 -1.65 -1.65 -1.64678 1.62422 1.63711 1.63711 1.63711 1.62744 1.62744 -1.65 -1.65 -1.65 -1.64678 1.62744 1.63711 1.62744 1.63711 1.62744 1.63711 -1.65 -1.65 0 -1.64678 1.62422 1.62422 1.63389 1.62422 1.63389 1.62744 -1.65 -1.65 -1.65 -1.64678 1.60811 1.62744 1.63711 1.63711 1.63711 1.63711 -1.65 -1.65 -1.65 -1.64678 1.60811 1.62744 1.63711 1.62744 1.62744 1.62744 -1.65 -1.65 -1.65 -1.64678 1.62422 1.63711 1.63711 1.63711 1.62744 1.62744 -1.65 -1.65 -1.65 -1.64678 1.62744 1.63711 1.62744 1.63711 1.62744 1.63711 -1.65 -1.65 -1.65 -1.64678 1.62422 1.63711 1.63711 1.62744 1.62744 1.49209 -1.65 -1.65 -1.65 -1.64678 1.60811 1.63711 1.63711 1.62744 1.62744 1.63711 -1.65 -1.65 -1.65 -1.64678 1.62422 1.62422 1.63711 1.63711 1.62744 1.63711 -1.65 -1.65 -1.65 -1.64678 1.62422 1.63711 1.63711 1.62744 1.63389 1.62744 -1.65 -1.65 -1.65 -1.64678 1.62422 1.63711 1.63711 1.63711 1.62744 1.62744 -1.65 -1.65 0 -1.64678 1.62422 1.63711 1.63711 1.62744 1.62744 1.49209 -1.65 -1.65 -1.65 -1.64678 1.60811 1.63711 1.63711 1.62744 1.62744 1.63711 -1.65 -1.65 -1.65 -1.64678 1.62422 1.62422 1.63711 1.63711 1.62744 1.63711 -1.65 -1.65 -1.65 -1.64678 1.62422 1.63711 1.63711 1.62744 1.63389 1.62744 -1.65 -1.65 -1.65 -1.64678 1.62422 1.63711 1.63711 1.63711 1.62744 1.62744 -1.65 -1.65 -1.65 -1.64678 1.62422 1.63711 1.63711 1.63711 1.62744 1.5501 -1.65 -1.65 -1.65 -1.64678 1.61777 1.63711 1.63711 1.63711 1.62422 1.56943 -1.65 -1.65 -1.65 -1.64678 1.61777 1.63711 1.63711 1.63711 1.62744 1.63711 -1.65 -1.65 -1.65 -1.64678 1.62422 1.62744 1.63711 1.63711 1.62744 1.62744 -1.65 -1.65 -1.65 -1.64678 1.62422 1.63711 1.63711 1.63711 1.62744 1.62744 -1.65 -1.65 0 -1.64678 1.62422 1.63711 1.63711 1.63711 1.62744 1.5501 -1.65 -1.65 -1.65 -1.64678 1.61777 1.63711 1.63711 1.63711 1.62422 1.56943 -1.65 -1.65 -1.65 -1.64678 1.61777 1.63711 1.63711 1.63711 1.62744 1.63711 -1.65 -1.65 -1.65 -1.64678 1.62422 1.62744 1.63711 1.63711 1.62744 1.62744 -1.65 -1.65 -1.65 -1.64678 1.62422 1.63711 1.63711 1.63711 1.62744 1.62744 -1.65 -1.65 -1.65 -1.64678 1.62422 1.63711 1.62422 1.63711 1.62744 1.63711 -1.65 -1.65 -1.65 -1.64678 1.62422 1.62744 1.62422 1.63711 1.63711 1.63711 -1.65 -1.65 -1.65 -1.64678 1.61777 1.62744 1.63711 1.62744 1.62422 1.63711 -1.65 -1.65 -1.65 -1.64678 1.62422 1.63711 1.63711 1.62744 1.62744 1.63711 -1.65 -1.65 -1.65 -1.64678 1.62422 1.63711 1.63711 1.63711 1.62744 1.50498 -1.65 -1.65 0 -1.64678 1.62422 1.63711 1.62422 1.63711 1.62744 1.63711 -1.65 -1.65 -1.65 -1.64678 1.62422 1.62744 1.62422 1.63711 1.63711 1.63711 -1.65 -1.65 -1.65 -1.64678 1.61777 1.62744 1.63711 1.62744 1.62422 1.63711 -1.65 -1.65 -1.65 -1.64678 1.62422 1.63711 1.63711 1.62744 1.62744 1.63711 -1.65 -1.65 -1.65 -1.64678 1.62422 1.63711 1.63711 1.63711 1.62744 1.50498 -1.65 -1.65 -1.65 -1.64678 1.62422 1.62422 1.63711 1.63711 1.62422 1.63711 -1.65 -1.65 -1.65 -1.64678 1.62422 1.63711 1.63711 1.63711 1.62744 1.54688 -1.65 -1.65 -1.65 -1.64678 1.62422 1.62744 1.63711 1.63711 1.62744 1.63711 -1.65 -1.65 -1.65 -1.64678 1.62422 1.62744 1.63711 1.63711 1.62744 1.63711 -1.65 -1.65 -1.65 -1.64678 1.62744 1.63711 1.63711 1.62422 1.62744 1.63711 -1.65 -1.65 0 -1.64678 1.62422 1.62422 1.63711 1.63711 1.62422 1.63711 -1.65 -1.65 -1.65 -1.64678 1.62422 1.63711 1.63711 1.63711 1.62744 1.54688 -1.65 -1.65 -1.65 -1.64678 1.62422 1.62744 1.63711 1.63711 1.62744 1.63711 -1.65 -1.65 -1.65 -1.64678 1.62422 1.62744 1.63711 1.63711 1.62744 1.63711 -1.65 -1.65 -1.65 -1.64678 1.62744 1.63711 1.63711 1.62422 1.62744 1.63711 -1.65 -1.65 -1.65 -1.64678 1.62744 1.62744 1.63711 1.63711 1.62744 1.63711 -1.65 -1.65 -1.65 -1.64678 1.62422 1.63711 1.63711 1.63711 1.62744 1.3793 -1.65 -1.65 -1.65 -1.64678 1.61777 1.63711 1.63711 1.63711 1.62422 1.48887 -1.65 -1.65 -1.65 -1.64678 1.62422 1.63711 1.62422 1.63711 1.62744 1.59844 -1.65 -1.65 -1.65 -1.64678 1.62422 1.63711 1.63711 1.63711 1.62744 1.63711 -1.65 -1.65 0 -1.64678 1.62744 1.62744 1.63711 1.63711 1.62744 1.63711 -1.65 -1.65 -1.65 -1.64678 1.62422 1.63711 1.63711 1.63711 1.62744 1.3793 -1.65 -1.65 -1.65 -1.64678 1.61777 1.63711 1.63711 1.63711 1.62422 1.48887 -1.65 -1.65 -1.65 -1.64678 1.62422 1.63711 1.62422 1.63711 1.62744 1.59844 -1.65 -1.65 -1.65 -1.64678 1.62422 1.63711 1.63711 1.63711 1.62744 1.63711 -1.65 -1.65 -1.65 -1.64678 1.62744 1.63711 1.63389 1.63711 1.62744 1.63711 -1.65 -1.65 -1.65 -1.64678 1.62422 1.62744 1.63389 1.62744 1.62422 1.28262 -1.65 -1.65 -1.65 -1.64678 1.62422 1.63711 1.63711 1.63711 1.62744 1.63711 -1.65 -1.65 -1.65 -1.64678 1.62422 1.63711 1.63711 1.63711 1.62744 1.63711 -1.65 -1.65 -1.65 -1.64678 1.62744 1.63711 1.63711 1.63711 1.62744 1.33418 -1.65 -1.65 0 -1.64678 1.62744 1.63711 1.63389 1.63711 1.62744 1.63711 -1.65 -1.65 -1.65 -1.64678 1.62422 1.62744 1.63389 1.62744 1.62422 1.28262 -1.65 -1.65 -1.65 -1.64678 1.62422 1.63711 1.63711 1.63711 1.62744 1.63711 -1.65 -1.65 -1.65 -1.64678 1.62422 1.63711 1.63711 1.63711 1.62744 1.63711 -1.65 -1.65 -1.65 -1.64678 1.62744 1.63711 1.63711 1.63711 1.62744 1.33418 -1.65 -1.65 -1.65 -1.64678 1.62422 1.63711 1.62744 1.63711 1.62744 0.902344 -1.65 -1.65 -1.65 -1.64678 1.62422 1.63711 1.63711 1.62744 1.62744 1.14404 -1.65 -1.65 -1.65 -1.64678 1.62422 1.62744 1.63711 1.63711 1.62744 0.605859 -1.65 -1.65 -1.65 -1.64678 1.62422 1.62422 1.63711 1.63711 1.62422 0.628418 -1.65 -1.65 -1.65 -1.64678 1.62422 1.62422 1.63711 1.63711 1.62422 1.32773 -1.65 -1.65 0 -1.64678 1.62422 1.63711 1.62744 1.63711 1.62744 0.902344 -1.65 -1.65 -1.65 -1.64678 1.62422 1.63711 1.63711 1.62744 1.62744 1.14404 -1.65 -1.65 -1.65 -1.64678 1.62422 1.62744 1.63711 1.63711 1.62744 0.605859 -1.65 -1.65 -1.65 -1.64678 1.62422 1.62422 1.63711 1.63711 1.62422 0.628418 -1.65 -1.65 -1.65 -1.64678 1.62422 1.62422 1.63711 1.63711 1.62422 1.32773 -1.65 -1.65 -1.65 -1.64678 1.62744 1.62744 1.63711 1.63711 1.62744 1.02803 -1.65 -1.65 -1.65 -1.64678 1.62744 1.63711 1.63711 1.62422 1.62422 1.57266 -1.65 -1.65 -1.65 -1.64678 1.62744 1.62744 1.63711 1.63711 1.62422 1.04092 -1.65 -1.65 -1.65 -1.64678 1.62422 1.63711 1.62422 1.63711 1.62422 0.525293 -1.65 -1.65 -1.65 -1.64678 1.62422 1.63711 1.63711 1.62744 1.62422 0.25459 -1.65 -1.65 0 -1.64678 1.62744 1.62744 1.63711 1.63711 1.62744 1.02803 -1.65 -1.65 -1.65 -1.64678 1.62744 1.63711 1.63711 1.62422 1.62422 1.57266 -1.65 -1.65 -1.65 -1.64678 1.62744 1.62744 1.63711 1.63711 1.62422 1.04092 -1.65 -1.65 -1.65 -1.64678 1.62422 1.63711 1.62422 1.63711 1.62422 0.525293 -1.65 -1.65 -1.65 -1.64678 1.62422 1.63711 1.63711 1.62744 1.62422 0.25459 -1.65 -1.65 -1.65 -1.64678 1.62422 1.62744 1.63711 1.63711 1.62422 0.641309 -1.65 -1.65 -1.65 -1.64678 1.62744 1.63711 1.63711 1.63711 1.62422 1.2375 -1.65 -1.65 -1.65 -1.64678 1.62422 1.62744 1.63711 1.62744 1.62422 1.2665 -1.65 -1.65 -1.65 -1.64678 1.62744 1.62744 1.63711 1.62744 1.62422 0.431836 -1.65 -1.65 -1.65 -1.64678 1.62422 1.63711 1.63711 1.63711 1.62422 0.0999023 -1.65 -1.65 0 -1.64678 1.62422 1.62744 1.63711 1.63711 1.62422 0.641309 -1.65 -1.65 -1.65 -1.64678 1.62744 1.63711 1.63711 1.63711 1.62422 1.2375 -1.65 -1.65 -1.65 -1.64678 1.62422 1.62744 1.63711 1.62744 1.62422 1.2665 -1.65 -1.65 -1.65 -1.64678 1.62744 1.62744 1.63711 1.62744 1.62422 0.431836 -1.65 -1.65 -1.65 -1.64678 1.62422 1.63711 1.63711 1.63711 1.62422 0.0999023 -1.65 -1.65 -1.65 -1.64678 1.62422 1.63711 1.63711 1.62744 1.62422 0.47373 -1.65 -1.65 -1.65 -1.64678 1.62422 1.63711 1.62744 1.63711 1.62744 -0.312598 -1.65 -1.65 -1.65 -1.64678 1.62422 1.63711 1.62744 1.63711 1.62422 0.605859 -1.65 -1.65 -1.65 -1.64678 1.62744 1.63711 1.63711 1.62744 1.62422 0.112793 -1.65 -1.65 -1.65 -1.64678 1.62422 1.63711 1.63711 1.63711 1.62422 0.0773437 -1.65 -1.65 0 -1.64678 1.62422 1.63711 1.63711 1.62744 1.62422 0.47373 -1.65 -1.65 -1.65 -1.64678 1.62422 1.63711 1.62744 1.63711 1.62744 -0.312598 -1.65 -1.65 -1.65 -1.64678 1.62422 1.63711 1.62744 1.63711 1.62422 0.605859 -1.65 -1.65 -1.65 -1.64678 1.62744 1.63711 1.63711 1.62744 1.62422 0.112793 -1.65 -1.65 -1.65 -1.64678 1.62422 1.63711 1.63711 1.63711 1.62422 0.0773437 -1.65 -1.65 -1.65 -1.64678 1.62422 1.63711 1.63711 1.62744 1.62422 -0.183691 -1.65 -1.65 -1.65 -1.64678 1.62422 1.63711 1.62422 1.63711 1.62422 1.07959 -1.65 -1.65 -1.65 -1.64678 1.62422 1.63711 1.62744 1.62744 1.62422 0.915234 -1.65 -1.65 -1.65 -1.64678 1.62744 1.63711 1.62744 1.62744 1.62422 0.834668 -1.65 -1.65 -1.65 -1.64678 1.62744 1.63711 1.63711 1.63711 1.62422 0.00966797 -1.65 -1.65 0 -1.64678 1.62422 1.63711 1.63711 1.62744 1.62422 -0.183691 -1.65 -1.65 -1.65 -1.64678 1.62422 1.63711 1.62422 1.63711 1.62422 1.07959 -1.65 -1.65 -1.65 -1.64678 1.62422 1.63711 1.62744 1.62744 1.62422 0.915234 -1.65 -1.65 -1.65 -1.64678 1.62744 1.63711 1.62744 1.62744 1.62422 0.834668 -1.65 -1.65 -1.65 -1.64678 1.62744 1.63711 1.63711 1.63711 1.62422 0.00966797 -1.65 -1.65 -1.65 -1.64678 1.62744 1.63711 1.63711 1.63711 1.62422 0.0773437 -1.65 -1.65 -1.65 -1.64678 1.62744 1.63711 1.63711 1.63711 1.62422 -0.0322266 -1.65 -1.65 -1.65 -1.64678 1.62422 1.62422 1.63711 1.63711 1.62422 -0.505957 -1.65 -1.65 -1.65 -1.64678 1.62422 1.63711 1.62422 1.62744 1.62422 -1.11182 -1.65 -1.65 -1.65 -1.64678 1.62744 1.63711 1.63711 1.63711 1.62422 0.25459 -1.65 -1.65 0 -1.64678 1.62744 1.63711 1.63711 1.63711 1.62422 0.0773437 -1.65 -1.65 -1.65 -1.64678 1.62744 1.63711 1.63711 1.63711 1.62422 -0.0322266 -1.65 -1.65 -1.65 -1.64678 1.62422 1.62422 1.63711 1.63711 1.62422 -0.505957 -1.65 -1.65 -1.65 -1.64678 1.62422 1.63711 1.62422 1.62744 1.62422 -1.11182 -1.65 -1.65 -1.65 -1.64678 1.62744 1.63711 1.63711 1.63711 1.62422 0.25459 -1.65 -1.65 -1.65 -1.64678 1.62744 1.63711 1.63711 1.63711 1.62422 0.331934 -1.65 -1.65 -1.65 -1.64678 1.62422 1.63711 1.62422 1.62422 1.62422 1.62744 -1.65 -1.65 -1.65 -1.64678 1.63389 1.63711 1.63711 1.63711 1.62422 -0.125684 -1.65 -1.65 -1.65 -1.64678 1.62744 1.63711 1.63711 1.63711 1.62422 0.125684 -1.65 -1.65 -1.65 -1.64678 1.62744 1.62744 1.63711 1.63711 1.62422 -0.389941 -1.65 -1.65 0 -1.64678 1.62744 1.63711 1.63711 1.63711 1.62422 0.331934 -1.65 -1.65 -1.65 -1.64678 1.62422 1.63711 1.62422 1.62422 1.62422 1.62744 -1.65 -1.65 -1.65 -1.64678 1.63389 1.63711 1.63711 1.63711 1.62422 -0.125684 -1.65 -1.65 -1.65 -1.64678 1.62744 1.63711 1.63711 1.63711 1.62422 0.125684 -1.65 -1.65 -1.65 -1.64678 1.62744 1.62744 1.63711 1.63711 1.62422 -0.389941 -1.65 -1.65 -1.65 -1.64678 1.62422 1.62422 1.63711 1.63711 1.62744 1.41797 -1.65 -1.65 -1.65 -1.64678 1.62744 1.62744 1.62744 1.62744 1.62422 -0.0805664 -1.65 -1.65 -1.65 -1.64678 1.62744 1.63711 1.63711 1.63711 1.62422 -0.57041 -1.65 -1.65 -1.65 -1.64678 1.62422 1.63711 1.63711 1.62744 1.62422 -0.625195 -1.65 -1.65 -1.65 -1.64678 1.63711 1.63711 1.63711 1.62744 1.62422 -1.62744 -1.65 -1.65 0 -1.64678 1.62422 1.62422 1.63711 1.63711 1.62744 1.41797 -1.65 -1.65 -1.65 -1.64678 1.62744 1.62744 1.62744 1.62744 1.62422 -0.0805664 -1.65 -1.65 -1.65 -1.64678 1.62744 1.63711 1.63711 1.63711 1.62422 -0.57041 -1.65 -1.65 -1.65 -1.64678 1.62422 1.63711 1.63711 1.62744 1.62422 -0.625195 -1.65 -1.65 -1.65 -1.64678 1.63711 1.63711 1.63711 1.62744 1.62422 -1.62744 -1.65 -1.65 -1.65 -1.64678 1.62744 1.63711 1.63711 1.63711 1.62422 -1.63711 -1.65 -1.65 -1.65 -1.64678 1.62744 1.62744 1.63711 1.63711 1.62422 -0.918457 -1.65 -1.65 -1.65 -1.64678 1.62744 1.63711 1.62422 1.62744 1.62422 -1.64033 -1.65 -1.65 -1.65 -1.64678 1.62744 1.63711 1.63711 1.62422 1.62422 -1.63066 -1.65 -1.65 -1.65 -1.64678 1.62744 1.63711 1.62744 1.63711 1.62422 -1.62744 -1.65 -1.65 0 -1.64678 1.62744 1.63711 1.63711 1.63711 1.62422 -1.63711 -1.65 -1.65 -1.65 -1.64678 1.62744 1.62744 1.63711 1.63711 1.62422 -0.918457 -1.65 -1.65 -1.65 -1.64678 1.62744 1.63711 1.62422 1.62744 1.62422 -1.64033 -1.65 -1.65 -1.65 -1.64678 1.62744 1.63711 1.63711 1.62422 1.62422 -1.63066 -1.65 -1.65 -1.65 -1.64678 1.62744 1.63711 1.62744 1.63711 1.62422 -1.62744 -1.65 -1.65 -1.65 -1.64678 1.62422 1.63711 1.63711 1.63711 1.62422 -0.605859 -1.65 -1.65 -1.65 -1.64678 1.62744 1.63711 1.63711 1.63711 1.62422 -0.219141 -1.65 -1.65 -1.65 -1.64678 1.62744 1.62744 1.63711 1.63711 1.62422 0.148242 -1.65 -1.65 -1.65 -1.64678 1.63389 1.62744 1.63711 1.63711 1.62422 -0.0257812 -1.65 -1.65 -1.65 -1.64678 1.63389 1.62744 1.63711 1.62422 1.62422 -0.699316 -1.65 -1.65 0 -1.64678 1.62422 1.63711 1.63711 1.63711 1.62422 -0.605859 -1.65 -1.65 -1.65 -1.64678 1.62744 1.63711 1.63711 1.63711 1.62422 -0.219141 -1.65 -1.65 -1.65 -1.64678 1.62744 1.62744 1.63711 1.63711 1.62422 0.148242 -1.65 -1.65 -1.65 -1.64678 1.63389 1.62744 1.63711 1.63711 1.62422 -0.0257812 -1.65 -1.65 -1.65 -1.64678 1.63389 1.62744 1.63711 1.62422 1.62422 -0.699316 -1.65 -1.65 -1.65 -1.64678 1.63389 1.63711 1.63711 1.62422 1.62422 -1.64033 -1.65 -1.65 -1.65 -1.64678 1.62744 1.62744 1.63711 1.63711 1.62422 -1.62744 -1.65 -1.65 -1.65 -1.64678 1.62744 1.63711 1.62744 1.63711 1.62422 -1.33096 -1.65 -1.65 -1.65 -1.64678 1.63389 1.63711 1.63711 1.63711 1.62422 -0.438281 -1.65 -1.65 -1.65 -1.64678 1.62744 1.62744 1.63711 1.63711 1.62422 -1.63066 -1.65 -1.65 0 