-0.0515625 0.00966797 0.0612305 0.0999023 0.0773437 0.0290039 -0.0418945 -0.103125 -0.116016 -0.10957 -0.0515625 0.0386719 0.0902344 0.0999023 0.0805664 0.00322266 -0.0483398 -0.103125 -0.116016 -0.103125 -0.0483398 0.00966797 0.0708984 0.0805664 0.0612305 0.0193359 -0.0418945 -0.093457 -0.116016 -0.103125 -0.0515625 0.00966797 0.0483398 0.0805664 0.0773437 0.0225586 -0.0515625 -0.093457 -0.10957 -0.0999023 -0.0515625 0.00966797 0.0451172 0.0902344 0.0773437 0.0225586 -0.0418945 -0.0837891 -0.128906 -0.093457 -0.0483398 0.00966797 0.0612305 0.0999023 0.0773437 0.0225586 -0.0418945 -0.0837891 -0.10957 -0.093457 -0.0515625 0.00322266 0.0773437 0.0999023 0.0805664 0.00966797 -0.0515625 -0.093457 -0.128906 -0.103125 -0.0580078 0.0193359 0.0612305 0.0966797 0.0773437 0.0225586 -0.0418945 -0.0837891 -0.125684 -0.0999023 -0.0515625 0.00322266 0.0483398 0.0902344 0.0612305 0.0225586 -0.0257812 -0.0999023 -0.128906 -0.103125 -0.0418945 0.0225586 0.0805664 0.0902344 0.0612305 0.0225586 -0.0418945 -0.093457 -0.103125 0 -0.0483398 0.00966797 0.0612305 0.0999023 0.0773437 0.0225586 -0.0418945 -0.0837891 -0.10957 -0.093457 -0.0515625 0.00322266 0.0773437 0.0999023 0.0805664 0.00966797 -0.0515625 -0.093457 -0.128906 -0.103125 -0.0580078 0.0193359 0.0612305 0.0966797 0.0773437 0.0225586 -0.0418945 -0.0837891 -0.125684 -0.0999023 -0.0515625 0.00322266 0.0483398 0.0902344 0.0612305 0.0225586 -0.0257812 -0.0999023 -0.128906 -0.103125 -0.0418945 0.0225586 0.0805664 0.0902344 0.0612305 0.0225586 -0.0418945 -0.093457 -0.103125 -0.0999023 -0.0515625 0.00966797 0.0999023 0.0999023 0.0773437 0.0128906 -0.0483398 -0.0999023 -0.135352 -0.103125 -0.0515625 0.0225586 0.0773437 0.0902344 0.0902344 0.0483398 -0.0418945 -0.116016 -0.128906 -0.103125 -0.0515625 0.0225586 0.0773437 0.0902344 0.0773437 0.0225586 -0.0483398 -0.116016 -0.141797 -0.103125 -0.0483398 0.00966797 0.0966797 0.112793 0.0902344 0.0290039 -0.0515625 -0.116016 -0.14502 -0.103125 -0.0483398 0.0225586 0.0902344 0.112793 0.0902344 0.0225586 -0.0483398 -0.116016 -0.128906 0 -0.0515625 0.00966797 0.0999023 0.0999023 0.0773437 0.0128906 -0.0483398 -0.0999023 -0.135352 -0.103125 -0.0515625 0.0225586 0.0773437 0.0902344 0.0902344 0.0483398 -0.0418945 -0.116016 -0.128906 -0.103125 -0.0515625 0.0225586 0.0773437 0.0902344 0.0773437 0.0225586 -0.0483398 -0.116016 -0.141797 -0.103125 -0.0483398 0.00966797 0.0966797 0.112793 0.0902344 0.0290039 -0.0515625 -0.116016 -0.14502 -0.103125 -0.0483398 0.0225586 0.0902344 0.112793 0.0902344 0.0225586 -0.0483398 -0.116016 -0.128906 -0.10957 -0.0483398 0.0225586 0.0902344 0.112793 0.0966797 0.0225586 -0.0483398 -0.128906 -0.151465 -0.116016 -0.0644531 0.0225586 0.0999023 0.125684 0.0966797 0.00966797 -0.0483398 -0.116016 -0.15791 -0.116016 -0.0515625 0.0290039 0.0773437 0.125684 0.0902344 0.0225586 -0.0580078 -0.125684 -0.15791 -0.116016 -0.0515625 0.0193359 0.0902344 0.112793 0.0999023 0.0225586 -0.0644531 -0.125684 -0.15791 -0.116016 -0.0483398 0.0225586 0.0805664 0.112793 0.0902344 0.0225586 -0.0515625 -0.128906 -0.15791 0 -0.0483398 0.0225586 0.0902344 0.112793 0.0966797 0.0225586 -0.0483398 -0.128906 -0.151465 -0.116016 -0.0644531 0.0225586 0.0999023 0.125684 0.0966797 0.00966797 -0.0483398 -0.116016 -0.15791 -0.116016 -0.0515625 0.0290039 0.0773437 0.125684 0.0902344 0.0225586 -0.0580078 -0.125684 -0.15791 -0.116016 -0.0515625 0.0193359 0.0902344 0.112793 0.0999023 0.0225586 -0.0644531 -0.125684 -0.15791 -0.116016 -0.0483398 0.0225586 0.0805664 0.112793 0.0902344 0.0225586 -0.0515625 -0.128906 -0.15791 -0.116016 -0.0644531 0.0225586 0.0999023 0.132129 0.0773437 0.0225586 -0.0580078 -0.116016 -0.151465 -0.116016 -0.0515625 0.0386719 0.0805664 0.125684 0.0966797 0.0225586 -0.0580078 -0.128906 -0.15791 -0.116016 -0.0515625 0.0290039 0.0999023 0.125684 0.0999023 0.0225586 -0.0644531 -0.128906 -0.161133 -0.128906 -0.0515625 0.0225586 0.0999023 0.132129 0.0999023 0.0193359 -0.0741211 -0.14502 -0.15791 -0.128906 -0.0418945 0.0225586 0.0966797 0.125684 0.0966797 0.0225586 -0.0515625 -0.128906 -0.15791 0 -0.0644531 0.0225586 0.0999023 0.132129 0.0773437 0.0225586 -0.0580078 -0.116016 -0.151465 -0.116016 -0.0515625 0.0386719 0.0805664 0.125684 0.0966797 0.0225586 -0.0580078 -0.128906 -0.15791 -0.116016 -0.0515625 0.0290039 0.0999023 0.125684 0.0999023 0.0225586 -0.0644531 -0.128906 -0.161133 -0.128906 -0.0515625 0.0225586 0.0999023 0.132129 0.0999023 0.0193359 -0.0741211 -0.14502 -0.15791 -0.128906 -0.0418945 0.0225586 0.0966797 0.125684 0.0966797 0.0225586 -0.0515625 -0.128906 -0.15791 -0.14502 -0.0515625 0.0386719 0.112793 0.141797 0.0999023 0.0225586 -0.0644531 -0.14502 -0.161133 -0.128906 -0.0515625 0.0386719 0.0999023 0.132129 0.0999023 0.0225586 -0.0580078 -0.128906 -0.15791 -0.128906 -0.0741211 0.0451172 0.0999023 0.112793 0.0773437 0.0290039 -0.0580078 -0.125684 -0.15791 -0.116016 -0.0515625 0.0225586 0.0902344 0.112793 0.0773437 0.0225586 -0.0580078 -0.116016 -0.15791 -0.10957 -0.0483398 0.0386719 0.106348 0.125684 0.0999023 0.0225586 -0.0515625 -0.135352 -0.15791 0 -0.0515625 0.0386719 0.112793 0.141797 0.0999023 0.0225586 -0.0644531 -0.14502 -0.161133 -0.128906 -0.0515625 0.0386719 0.0999023 0.132129 0.0999023 0.0225586 -0.0580078 -0.128906 -0.15791 -0.128906 -0.0741211 0.0451172 0.0999023 0.112793 0.0773437 0.0290039 -0.0580078 -0.125684 -0.15791 -0.116016 -0.0515625 0.0225586 0.0902344 0.112793 0.0773437 0.0225586 -0.0580078 -0.116016 -0.15791 -0.10957 -0.0483398 0.0386719 0.106348 0.125684 0.0999023 0.0225586 -0.0515625 -0.135352 -0.15791 -0.116016 -0.0580078 0.0290039 0.0999023 0.141797 0.0999023 0.0225586 -0.0644531 -0.14502 -0.167578 -0.128906 -0.0515625 0.0386719 0.112793 0.141797 0.0805664 0.00322266 -0.0515625 -0.135352 -0.161133 -0.128906 -0.0515625 0.0290039 0.0999023 0.132129 0.0999023 0.0193359 -0.0580078 -0.128906 -0.15791 -0.128906 -0.0515625 0.0225586 0.0902344 0.125684 0.0999023 0.0225586 -0.0547852 -0.125684 -0.161133 -0.116016 -0.0741211 0.00966797 0.0773437 0.0999023 0.0966797 0.0225586 -0.0515625 -0.10957 -0.14502 0 -0.0580078 0.0290039 0.0999023 0.141797 0.0999023 0.0225586 -0.0644531 -0.14502 -0.167578 -0.128906 -0.0515625 0.0386719 0.112793 0.141797 0.0805664 0.00322266 -0.0515625 -0.135352 -0.161133 -0.128906 -0.0515625 0.0290039 0.0999023 0.132129 0.0999023 0.0193359 -0.0580078 -0.128906 -0.15791 -0.128906 -0.0515625 0.0225586 0.0902344 0.125684 0.0999023 0.0225586 -0.0547852 -0.125684 -0.161133 -0.116016 -0.0741211 0.00966797 0.0773437 0.0999023 0.0966797 0.0225586 -0.0515625 -0.10957 -0.14502 -0.116016 -0.0515625 0.0483398 0.0999023 0.0999023 0.0902344 0.0225586 -0.0515625 -0.128906 -0.15791 -0.128906 -0.0515625 0.0451172 0.0999023 0.125684 0.0966797 0.0225586 -0.0580078 -0.128906 -0.15791 -0.128906 -0.0515625 0.0386719 0.0902344 0.112793 0.0773437 0.0225586 -0.0644531 -0.116016 -0.14502 -0.128906 -0.0515625 0.0290039 0.0999023 0.112793 0.0902344 0.0225586 -0.0515625 -0.116016 -0.15791 -0.116016 -0.0483398 0.0386719 0.0999023 0.125684 0.0966797 0.0225586 -0.0580078 -0.116016 -0.161133 0 -0.0515625 0.0483398 0.0999023 0.0999023 0.0902344 0.0225586 -0.0515625 -0.128906 -0.15791 -0.128906 -0.0515625 0.0451172 0.0999023 0.125684 0.0966797 0.0225586 -0.0580078 -0.128906 -0.15791 -0.128906 -0.0515625 0.0386719 0.0902344 0.112793 0.0773437 0.0225586 -0.0644531 -0.116016 -0.14502 -0.128906 -0.0515625 0.0290039 0.0999023 0.112793 0.0902344 0.0225586 -0.0515625 -0.116016 -0.15791 -0.116016 -0.0483398 0.0386719 0.0999023 0.125684 0.0966797 0.0225586 -0.0580078 -0.116016 -0.161133 -0.116016 -0.0483398 0.0225586 0.112793 0.125684 0.0999023 0.0225586 -0.0515625 -0.125684 -0.151465 -0.128906 -0.0515625 0.0225586 0.0999023 0.112793 0.0902344 0.0225586 -0.0483398 -0.116016 -0.161133 -0.128906 -0.0644531 0.0386719 0.106348 0.141797 0.0902344 0.0225586 -0.0644531 -0.128906 -0.161133 -0.116016 -0.0483398 0.0386719 0.0999023 0.122461 0.0902344 0.0225586 -0.0580078 -0.128906 -0.15791 -0.116016 -0.0515625 0.0386719 0.0999023 0.125684 0.0773437 0.0225586 -0.0644531 -0.135352 -0.15791 0 -0.0483398 0.0225586 0.112793 0.125684 0.0999023 0.0225586 -0.0515625 -0.125684 -0.151465 -0.128906 -0.0515625 0.0225586 0.0999023 0.112793 0.0902344 0.0225586 -0.0483398 -0.116016 -0.161133 -0.128906 -0.0644531 0.0386719 0.106348 0.141797 0.0902344 0.0225586 -0.0644531 -0.128906 -0.161133 -0.116016 -0.0483398 0.0386719 0.0999023 0.122461 0.0902344 0.0225586 -0.0580078 -0.128906 -0.15791 -0.116016 -0.0515625 0.0386719 0.0999023 0.125684 0.0773437 0.0225586 -0.0644531 -0.135352 -0.15791 -0.128906 -0.0515625 0.0483398 0.0999023 0.122461 0.0902344 0.0193359 -0.0644531 -0.128906 -0.15791 -0.116016 -0.0257812 0.0451172 0.0902344 0.0999023 0.0902344 0.0225586 -0.0515625 -0.0644531 -0.103125 -0.093457 -0.0805664 0.0225586 0.0902344 0.0999023 0.0483398 0.00966797 0.125684 0.0999023 0.0451172 -0.0128906 0.0386719 0.283594 0.125684 0.370605 0.154687 -0.25459 -0.596191 -0.528516 -0.4125 -0.357715 -0.0644531 0.154687 0.286816 0.331934 0.25459 0.00322266 0.0773437 0.0225586 -0.389941 0 -0.0515625 0.0483398 0.0999023 0.122461 0.0902344 0.0193359 -0.0644531 -0.128906 -0.15791 -0.116016 -0.0257812 0.0451172 0.0902344 0.0999023 0.0902344 0.0225586 -0.0515625 -0.0644531 -0.103125 -0.093457 -0.0805664 0.0225586 0.0902344 0.0999023 0.0483398 0.00966797 0.125684 0.0999023 0.0451172 -0.0128906 0.0386719 0.283594 0.125684 0.370605 0.154687 -0.25459 -0.596191 -0.528516 -0.4125 -0.357715 -0.0644531 0.154687 0.286816 0.331934 0.25459 0.00322266 0.0773437 0.0225586 -0.389941 -0.389941 -0.515625 -0.747656 -0.0837891 0.331934 0.708984 0.576855 0.592969 0.409277 0.0966797 0.0225586 -0.128906 -0.14502 -0.0999023 -0.0515625 -0.00322266 -0.15791 -0.270703 -0.261035 -0.232031 -0.20625 -0.103125 -0.0902344 0.0612305 -0.00644531 0.0225586 0.00966797 0.0225586 -0.14502 -0.20625 -0.257812 -0.409277 0.122461 -0.299707 -0.15791 -0.183691 -0.541406 0.180469 0.180469 -0.20625 -0.393164 -0.496289 0.283594 0.399609 0.525293 0.244922 0.435059 0.399609 0.0902344 -0.0225586 0 -0.515625 -0.747656 -0.0837891 0.331934 0.708984 0.576855 0.592969 0.409277 0.0966797 0.0225586 -0.128906 -0.14502 -0.0999023 -0.0515625 -0.00322266 -0.15791 -0.270703 -0.261035 -0.232031 -0.20625 -0.103125 -0.0902344 0.0612305 -0.00644531 0.0225586 0.00966797 0.0225586 -0.14502 -0.20625 -0.257812 -0.409277 0.122461 -0.299707 -0.15791 -0.183691 -0.541406 0.180469 0.180469 -0.20625 -0.393164 -0.496289 0.283594 0.399609 0.525293 0.244922 0.435059 0.399609 0.0902344 -0.0225586 -0.203027 -0.290039 0.00322266 0.00966797 0.0612305 0.0225586 -0.0483398 -0.103125 -0.14502 -0.116016 -0.093457 -0.0257812 0.0999023 0.125684 0.154687 0.125684 0.0386719 -0.0837891 -0.128906 -0.183691 -0.15791 -0.0805664 0.00966797 0.0708984 0.0999023 0.0805664 0 -0.103125 -0.151465 -0.15791 -0.128906 -0.0805664 0 0.0483398 0.0773437 0.0708984 0.0225586 -0.0644531 -0.116016 -0.135352 -0.103125 -0.0580078 0.00966797 0.0386719 0.0805664 0.0386719 0 -0.0418945 -0.093457 -0.103125 0 -0.290039 0.00322266 0.00966797 0.0612305 0.0225586 -0.0483398 -0.103125 -0.14502 -0.116016 -0.093457 -0.0257812 0.0999023 0.125684 0.154687 0.125684 0.0386719 -0.0837891 -0.128906 -0.183691 -0.15791 -0.0805664 0.00966797 0.0708984 0.0999023 0.0805664 0 -0.103125 -0.151465 -0.15791 -0.128906 -0.0805664 0 0.0483398 0.0773437 0.0708984 0.0225586 -0.0644531 -0.116016 -0.135352 -0.103125 -0.0580078 0.00966797 0.0386719 0.0805664 0.0386719 0 -0.0418945 -0.093457 -0.103125 -0.103125 -0.0418945 0.0483398 0.0773437 0.0999023 0.0225586 0.00966797 -0.0128906 -0.0805664 -0.103125 -0.0644531 -0.0225586 0.0225586 0.0612305 0.112793 0.0773437 0.0225586 -0.0483398 -0.0999023 -0.103125 -0.093457 -0.0257812 0.0290039 0.0773437 0.0805664 0.0483398 0.00966797 -0.0515625 -0.0805664 -0.103125 -0.103125 -0.0418945 0.0193359 0.0386719 0.0773437 0.0612305 0.0193359 -0.0515625 -0.093457 -0.103125 -0.0837891 -0.0515625 0.00322266 0.0773437 0.0805664 0.0612305 0.0225586 -0.0257812 -0.093457 -0.128906 0 -0.0418945 0.0483398 0.0773437 0.0999023 0.0225586 0.00966797 -0.0128906 -0.0805664 -0.103125 -0.0644531 -0.0225586 0.0225586 0.0612305 0.112793 0.0773437 0.0225586 -0.0483398 -0.0999023 -0.103125 -0.093457 -0.0257812 0.0290039 0.0773437 0.0805664 0.0483398 0.00966797 -0.0515625 -0.0805664 -0.103125 -0.103125 -0.0418945 0.0193359 0.0386719 0.0773437 0.0612305 0.0193359 -0.0515625 -0.093457 -0.103125 -0.0837891 -0.0515625 0.00322266 0.0773437 0.0805664 0.0612305 0.0225586 -0.0257812 -0.093457 -0.128906 -0.093457 -0.0515625 0.00966797 0.0708984 0.0999023 0.0773437 0.0451172 -0.0418945 -0.0837891 -0.116016 -0.093457 -0.0483398 0.0225586 0.0999023 0.141797 0.0966797 0.00322266 -0.0418945 -0.103125 -0.15791 -0.093457 -0.0257812 0.0483398 0.116016 0.148242 0.125684 0.0386719 -0.0805664 -0.15791 -0.167578 -0.128906 -0.0644531 0.0386719 0.0999023 0.125684 0.0966797 0.0193359 -0.0644531 -0.15791 -0.183691 -0.15791 -0.0805664 0.0290039 0.0999023 0.125684 0.0999023 0.0225586 -0.0644531 -0.15791 -0.186914 0 -0.0515625 0.00966797 0.0708984 0.0999023 0.0773437 0.0451172 -0.0418945 -0.0837891 -0.116016 -0.093457 -0.0483398 0.0225586 0.0999023 0.141797 0.0966797 0.00322266 -0.0418945 -0.103125 -0.15791 -0.093457 -0.0257812 0.0483398 0.116016 0.148242 0.125684 0.0386719 -0.0805664 -0.15791 -0.167578 -0.128906 -0.0644531 0.0386719 0.0999023 0.125684 0.0966797 0.0193359 -0.0644531 -0.15791 -0.183691 -0.15791 -0.0805664 0.0290039 0.0999023 0.125684 0.0999023 0.0225586 -0.0644531 -0.15791 -0.186914 -0.161133 -0.0644531 0.0386719 0.122461 0.148242 0.0999023 0.0386719 -0.0644531 -0.128906 -0.196582 -0.128906 -0.0580078 0.0451172 0.125684 0.125684 0.0902344 0.0290039 -0.0515625 -0.125684 -0.167578 -0.128906 -0.0644531 0.0225586 0.0999023 0.112793 0.0902344 -0.00322266 -0.0580078 -0.093457 -0.14502 -0.128906 -0.0515625 0.0225586 0.0612305 0.0902344 0.0451172 -0.0128906 -0.0257812 -0.093457 -0.128906 -0.0837891 -0.0418945 0.0193359 0.0483398 0.0612305 0.0483398 0.00966797 -0.0418945 -0.0805664 -0.103125 0 -0.0644531 0.0386719 0.122461 0.148242 0.0999023 0.0386719 -0.0644531 -0.128906 -0.196582 -0.128906 -0.0580078 0.0451172 0.125684 0.125684 0.0902344 0.0290039 -0.0515625 -0.125684 -0.167578 -0.128906 -0.0644531 0.0225586 0.0999023 0.112793 0.0902344 -0.00322266 -0.0580078 -0.093457 -0.14502 -0.128906 -0.0515625 0.0225586 0.0612305 0.0902344 0.0451172 -0.0128906 -0.0257812 -0.093457 -0.128906 -0.0837891 -0.0418945 0.0193359 0.0483398 0.0612305 0.0483398 0.00966797 -0.0418945 -0.0805664 -0.103125 -0.093457 -0.0418945 -0.0128906 0.0290039 0.0386719 0.0225586 0 -0.0257812 -0.0483398 -0.0741211 -0.0644531 -0.0257812 0.00966797 0.0290039 0.0386719 0.0483398 0.00966797 -0.0128906 -0.0515625 -0.0805664 -0.0515625 -0.0257812 0.00966797 0.0451172 0.0612305 0.0483398 0.0386719 -0.0257812 -0.0644531 -0.0805664 -0.0805664 -0.0580078 0.0225586 0.0966797 0.0999023 0.0612305 -0.00322266 -0.0580078 -0.093457 -0.103125 -0.0805664 -0.0483398 0.0225586 0.0773437 0.112793 0.0773437 0.00966797 -0.0515625 -0.093457 -0.128906 0 -0.0418945 -0.0128906 0.0290039 0.0386719 0.0225586 0 -0.0257812 -0.0483398 -0.0741211 -0.0644531 -0.0257812 0.00966797 0.0290039 0.0386719 0.0483398 0.00966797 -0.0128906 -0.0515625 -0.0805664 -0.0515625 -0.0257812 0.00966797 0.0451172 0.0612305 0.0483398 0.0386719 -0.0257812 -0.0644531 -0.0805664 -0.0805664 -0.0580078 0.0225586 0.0966797 0.0999023 0.0612305 -0.00322266 -0.0580078 -0.093457 -0.103125 -0.0805664 -0.0483398 0.0225586 0.0773437 0.112793 0.0773437 0.00966797 -0.0515625 -0.093457 -0.128906 -0.10957 -0.0483398 0.0386719 0.0999023 0.125684 0.0902344 0.0225586 -0.0483398 -0.103125 -0.135352 -0.116016 -0.0483398 0.0451172 0.0999023 0.141797 0.0999023 0.0386719 -0.0644531 -0.128906 -0.151465 -0.116016 -0.0515625 0.0483398 0.125684 0.15791 0.0999023 0.00966797 -0.0805664 -0.14502 -0.15791 -0.128906 -0.0515625 0.0225586 0.106348 0.141797 0.0999023 0.0225586 -0.0805664 -0.128906 -0.161133 -0.14502 -0.0644531 0.0225586 0.0805664 0.112793 0.0805664 0.0225586 -0.0580078 -0.116016 -0.15791 0 -0.0483398 0.0386719 0.0999023 0.125684 0.0902344 0.0225586 -0.0483398 -0.103125 -0.135352 -0.116016 -0.0483398 0.0451172 0.0999023 0.141797 0.0999023 0.0386719 -0.0644531 -0.128906 -0.151465 -0.116016 -0.0515625 0.0483398 0.125684 0.15791 0.0999023 0.00966797 -0.0805664 -0.14502 -0.15791 -0.128906 -0.0515625 0.0225586 0.106348 0.141797 0.0999023 0.0225586 -0.0805664 -0.128906 -0.161133 -0.14502 -0.0644531 0.0225586 0.0805664 0.112793 0.0805664 0.0225586 -0.0580078 -0.116016 -0.15791 -0.116016 -0.0515625 0.0225586 0.0805664 0.0999023 0.0773437 0.00966797 -0.0515625 -0.125684 -0.135352 -0.116016 -0.0515625 0.00966797 0.0773437 0.0999023 0.0773437 0.00966797 -0.0515625 -0.093457 -0.125684 -0.103125 -0.0515625 0.00966797 0.0612305 0.0966797 0.0483398 0.00966797 -0.0515625 -0.093457 -0.116016 -0.0837891 -0.0418945 0.0193359 0.0773437 0.0999023 0.0902344 0 -0.0644531 -0.0805664 -0.125684 -0.093457 -0.0322266 0.0193359 0.0773437 0.0999023 0.0612305 0.0225586 -0.0257812 -0.093457 -0.125684 0 -0.0515625 0.0225586 0.0805664 0.0999023 0.0773437 0.00966797 -0.0515625 -0.125684 -0.135352 -0.116016 -0.0515625 0.00966797 0.0773437 0.0999023 0.0773437 0.00966797 -0.0515625 -0.093457 -0.125684 -0.103125 -0.0515625 0.00966797 0.0612305 0.0966797 0.0483398 0.00966797 -0.0515625 -0.093457 -0.116016 -0.0837891 -0.0418945 0.0193359 0.0773437 0.0999023 0.0902344 0 -0.0644531 -0.0805664 -0.125684 -0.093457 -0.0322266 0.0193359 0.0773437 0.0999023 0.0612305 0.0225586 -0.0257812 -0.093457 -0.125684 -0.093457 -0.0483398 0.0225586 0.0773437 0.0999023 0.0805664 0.0193359 -0.0257812 -0.093457 -0.103125 -0.0999023 -0.0483398 0.00966797 0.0773437 0.0999023 0.0773437 0.0225586 -0.0515625 -0.10957 -0.116016 -0.103125 -0.0483398 0.00966797 0.0902344 0.0773437 0.0708984 0 -0.0483398 -0.0999023 -0.0999023 -0.0805664 -0.0418945 0 0.0483398 0.0805664 0.0483398 0.0225586 -0.0418945 -0.103125 -0.103125 -0.093457 -0.0322266 0.0225586 0.0773437 0.0999023 0.0773437 0.0225586 -0.0515625 -0.103125 -0.125684 0 -0.0483398 0.0225586 0.0773437 0.0999023 0.0805664 0.0193359 -0.0257812 -0.093457 -0.103125 -0.0999023 -0.0483398 0.00966797 0.0773437 0.0999023 0.0773437 0.0225586 -0.0515625 -0.10957 -0.116016 -0.103125 -0.0483398 0.00966797 0.0902344 0.0773437 0.0708984 0 -0.0483398 -0.0999023 -0.0999023 -0.0805664 -0.0418945 0 0.0483398 0.0805664 0.0483398 0.0225586 -0.0418945 -0.103125 -0.103125 -0.093457 -0.0322266 0.0225586 0.0773437 0.0999023 0.0773437 0.0225586 -0.0515625 -0.103125 -0.125684 -0.0999023 -0.0418945 0.0225586 0.0902344 0.112793 0.0773437 0.00966797 -0.0515625 -0.0999023 -0.15791 -0.103125 -0.0644531 0.0225586 0.0773437 0.0966797 0.0805664 0.0225586 -0.0515625 -0.128906 -0.128906 -0.103125 -0.0483398 0.0225586 0.0773437 0.0999023 0.0902344 0.0290039 -0.0741211 -0.103125 -0.141797 -0.116016 -0.0257812 0.0225586 0.0805664 0.0999023 0.0612305 0.00966797 -0.0515625 -0.103125 -0.128906 -0.0999023 -0.0483398 0.0225586 0.0773437 0.0999023 0.0805664 0.0225586 -0.0483398 -0.103125 -0.128906 0 -0.0418945 0.0225586 0.0902344 0.112793 0.0773437 0.00966797 -0.0515625 -0.0999023 -0.15791 -0.103125 -0.0644531 0.0225586 0.0773437 0.0966797 0.0805664 0.0225586 -0.0515625 -0.128906 -0.128906 -0.103125 -0.0483398 0.0225586 0.0773437 0.0999023 0.0902344 0.0290039 -0.0741211 -0.103125 -0.141797 -0.116016 -0.0257812 0.0225586 0.0805664 0.0999023 0.0612305 0.00966797 -0.0515625 -0.103125 -0.128906 -0.0999023 -0.0483398 0.0225586 0.0773437 0.0999023 0.0805664 0.0225586 -0.0483398 -0.103125 -0.128906 -0.0999023 -0.0322266 0.0290039 0.0773437 0.0999023 0.0612305 0.00966797 -0.0515625 -0.093457 -0.128906 -0.103125 -0.0644531 0 0.0612305 0.0902344 0.0902344 0.00322266 -0.0515625 -0.0999023 -0.10957 -0.093457 -0.0515625 0.0193359 0.0805664 0.0902344 0.0612305 0.0225586 -0.0418945 -0.093457 -0.128906 -0.10957 -0.0483398 0.0451172 0.0708984 0.0966797 0.0773437 0.0225586 -0.0515625 -0.0999023 -0.10957 -0.0999023 -0.0418945 0.0225586 0.0773437 0.0966797 0.0773437 0.0193359 -0.0418945 -0.103125 -0.128906 0 -0.0322266 0.0290039 0.0773437 0.0999023 0.0612305 0.00966797 -0.0515625 -0.093457 -0.128906 -0.103125 -0.0644531 0 0.0612305 0.0902344 0.0902344 0.00322266 -0.0515625 -0.0999023 -0.10957 -0.093457 -0.0515625 0.0193359 0.0805664 0.0902344 0.0612305 0.0225586 -0.0418945 -0.093457 -0.128906 -0.10957 -0.0483398 0.0451172 0.0708984 0.0966797 0.0773437 0.0225586 -0.0515625 -0.0999023 -0.10957 -0.0999023 -0.0418945 0.0225586 0.0773437 0.0966797 0.0773437 0.0193359 -0.0418945 -0.103125 -0.128906 -0.0999023 -0.0418945 0.00966797 0.0773437 0.0999023 0.0902344 0.0193359 -0.0515625 -0.116016 -0.128906 -0.103125 -0.0483398 0.0225586 0.0773437 0.0902344 0.0773437 0.0193359 -0.0322266 -0.103125 -0.128906 -0.0999023 -0.0483398 0.0225586 0.0773437 0.0773437 0.0708984 0.0225586 -0.0483398 -0.0999023 -0.128906 -0.0805664 -0.0418945 0.0386719 0.0773437 0.0708984 0.0612305 0.00966797 -0.0257812 -0.103125 -0.128906 -0.0999023 -0.0483398 0.0225586 0.0773437 0.0999023 0.0773437 0.0225586 -0.0483398 -0.0999023 -0.128906 0 -0.0418945 0.00966797 0.0773437 0.0999023 0.0902344 0.0193359 -0.0515625 -0.116016 -0.128906 -0.103125 -0.0483398 0.0225586 0.0773437 0.0902344 0.0773437 0.0193359 -0.0322266 -0.103125 -0.128906 -0.0999023 -0.0483398 0.0225586 0.0773437 0.0773437 0.0708984 0.0225586 -0.0483398 -0.0999023 -0.128906 -0.0805664 -0.0418945 0.0386719 0.0773437 0.0708984 0.0612305 0.00966797 -0.0257812 -0.103125 -0.128906 -0.0999023 -0.0483398 0.0225586 0.0773437 0.0999023 0.0773437 0.0225586 -0.0483398 -0.0999023 -0.128906 -0.103125 -0.0515625 0.00966797 0.0708984 0.0805664 0.0773437 0.00966797 -0.0515625 -0.0999023 -0.116016 -0.093457 -0.0418945 0.0193359 0.0773437 0.0966797 0.0612305 0.00966797 -0.0418945 -0.0837891 -0.116016 -0.103125 -0.0515625 0 0.0483398 0.0773437 0.0612305 0.0225586 -0.0322266 -0.0805664 -0.10957 -0.093457 -0.0418945 0.00966797 0.0612305 0.0805664 0.0773437 0.0290039 -0.0418945 -0.103125 -0.128906 -0.0805664 -0.0418945 0 0.0612305 0.0902344 0.0547852 0.0225586 -0.0515625 -0.103125 -0.128906 0 -0.0515625 0.00966797 0.0708984 0.0805664 0.0773437 0.00966797 -0.0515625 -0.0999023 -0.116016 -0.093457 -0.0418945 0.0193359 0.0773437 0.0966797 0.0612305 0.00966797 -0.0418945 -0.0837891 -0.116016 -0.103125 -0.0515625 0 0.0483398 0.0773437 0.0612305 0.0225586 -0.0322266 -0.0805664 -0.10957 -0.093457 -0.0418945 0.00966797 0.0612305 0.0805664 0.0773437 0.0290039 -0.0418945 -0.103125 -0.128906 -0.0805664 -0.0418945 0 0.0612305 0.0902344 0.0547852 0.0225586 -0.0515625 -0.103125 -0.128906 -0.10957 -0.0483398 0.0451172 0.0773437 0.0966797 0.0773437 0.00966797 -0.0257812 -0.103125 -0.128906 -0.116016 -0.0515625 0.0225586 0.0805664 0.0999023 0.0773437 0.0225586 -0.0322266 -0.103125 -0.128906 -0.0999023 -0.0515625 0.0193359 0.0805664 0.0999023 0.0547852 0.0128906 -0.0515625 -0.125684 -0.128906 -0.10957 -0.0483398 0.0386719 0.0773437 0.0999023 0.0773437 0.00966797 -0.0515625 -0.103125 -0.125684 -0.103125 -0.0515625 0.0225586 0.0773437 0.0999023 0.0547852 0.00966797 -0.0515625 -0.10957 -0.116016 0 -0.0483398 0.0451172 0.0773437 0.0966797 0.0773437 0.00966797 -0.0257812 -0.103125 -0.128906 -0.116016 -0.0515625 0.0225586 0.0805664 0.0999023 0.0773437 0.0225586 -0.0322266 -0.103125 -0.128906 -0.0999023 -0.0515625 0.0193359 0.0805664 0.0999023 0.0547852 0.0128906 -0.0515625 -0.125684 -0.128906 -0.10957 -0.0483398 0.0386719 0.0773437 0.0999023 0.0773437 0.00966797 -0.0515625 -0.103125 -0.125684 -0.103125 -0.0515625 0.0225586 0.0773437 0.0999023 0.0547852 0.00966797 -0.0515625 -0.10957 -0.116016 -0.093457 -0.0515625 0.00966797 0.0773437 0.0999023 0.0805664 0.0225586 -0.0515625 -0.103125 -0.128906 -0.103125 -0.0515625 0.0225586 0.0708984 0.0902344 0.0773437 0.0193359 -0.0515625 -0.103125 -0.128906 -0.103125 -0.0515625 0.0193359 0.0773437 0.0902344 0.0547852 0.0193359 -0.0515625 -0.116016 -0.116016 -0.0999023 -0.0483398 0.00966797 0.0708984 0.0999023 0.0708984 0.0225586 -0.0418945 -0.093457 -0.10957 -0.0805664 -0.0418945 0.0225586 0.0773437 0.0999023 0.0773437 0.00966797 -0.0515625 -0.103125 -0.128906 0 -0.0515625 0.00966797 0.0773437 0.0999023 0.0805664 0.0225586 -0.0515625 -0.103125 -0.128906 -0.103125 -0.0515625 0.0225586 0.0708984 0.0902344 0.0773437 0.0193359 -0.0515625 -0.103125 -0.128906 -0.103125 -0.0515625 0.0193359 0.0773437 0.0902344 0.0547852 0.0193359 -0.0515625 -0.116016 -0.116016 -0.0999023 -0.0483398 0.00966797 0.0708984 0.0999023 0.0708984 0.0225586 -0.0418945 -0.093457 -0.10957 -0.0805664 -0.0418945 0.0225586 0.0773437 0.0999023 0.0773437 0.00966797 -0.0515625 -0.103125 -0.128906 -0.103125 -0.0418945 0.0193359 0.0773437 0.0999023 0.0966797 0.0483398 -0.0515625 -0.103125 -0.128906 -0.103125 -0.0515625 0.00966797 0.0773437 0.0999023 0.0773437 0.0225586 -0.0515625 -0.103125 -0.128906 -0.093457 -0.0418945 0.0225586 0.0773437 0.0966797 0.0547852 -0.00644531 -0.0418945 -0.103125 -0.14502 -0.103125 -0.0257812 0.0386719 0.0902344 0.0773437 0.0902344 0.00966797 -0.0805664 -0.0999023 -0.0805664 -0.0805664 -0.0225586 0.0773437 0.164355 0.164355 0.122461 -0.0837891 -0.0128906 0.0225586 0.0386719 0 -0.0418945 0.0193359 0.0773437 0.0999023 0.0966797 0.0483398 -0.0515625 -0.103125 -0.128906 -0.103125 -0.0515625 0.00966797 0.0773437 0.0999023 0.0773437 0.0225586 -0.0515625 -0.103125 -0.128906 -0.093457 -0.0418945 0.0225586 0.0773437 0.0966797 0.0547852 -0.00644531 -0.0418945 -0.103125 -0.14502 -0.103125 -0.0257812 0.0386719 0.0902344 0.0773437 0.0902344 0.00966797 -0.0805664 -0.0999023 -0.0805664 -0.0805664 -0.0225586 0.0773437 0.164355 0.164355 0.122461 -0.0837891 -0.0128906 0.0225586 0.0386719 0.0225586 0.0225586 0.0902344 0.0547852 0.0547852 0.228809 0.0773437 0.0386719 0.0902344 -0.219141 -0.36416 -0.464062 -0.486621 -0.335156 -0.290039 -0.093457 -0.161133 0.0999023 0.25459 0.244922 0.319043 0.125684 0.309375 0.360937 0.25459 -0.0483398 -0.103125 -0.0805664 -0.15791 -0.286816 -0.161133 0.0451172 -0.00644531 -0.093457 0.0225586 -0.0483398 -0.0515625 -0.20625 -0.515625 -0.367383 -0.103125 0.0999023 0.180469 0.319043 0.319043 0.370605 0.0708984 -0.248145 -0.331934 -0.0837891 0 0.0225586 0.0902344 0.0547852 0.0547852 0.228809 0.0773437 0.0386719 0.0902344 -0.219141 -0.36416 -0.464062 -0.486621 -0.335156 -0.290039 -0.093457 -0.161133 0.0999023 0.25459 0.244922 0.319043 0.125684 0.309375 0.360937 0.25459 -0.0483398 -0.103125 -0.0805664 -0.15791 -0.286816 -0.161133 0.0451172 -0.00644531 -0.093457 0.0225586 -0.0483398 -0.0515625 -0.20625 -0.515625 -0.367383 -0.103125 0.0999023 0.180469 0.319043 0.319043 0.370605 0.0708984 -0.248145 -0.331934 -0.0837891 0.0773437 0.203027 0.0773437 -0.261035 -0.828223 -0.828223 -0.941016 -0.36416 0.360937 0.370605 0.744434 0.773438 0.766992 0.225586 0.331934 -0.15791 -0.186914 -0.232031 -0.20625 -0.103125 -0.093457 -0.0128906 -0.00644531 0.0708984 0.331934 0.148242 -0.0515625 -0.0805664 -0.312598 -0.248145 -0.219141 -0.14502 -0.0644531 0.0612305 0.0225586 0.0999023 0.0805664 0.0451172 -0.0580078 -0.0644531 -0.0128906 0.0225586 -0.103125 -0.0805664 -0.0128906 -0.0128906 0.0386719 -0.103125 0.0612305 0.0805664 0 0.203027 0.0773437 -0.261035 -0.828223 -0.828223 -0.941016 -0.36416 0.360937 0.370605 0.744434 0.773438 0.766992 0.225586 0.331934 -0.15791 -0.186914 -0.232031 -0.20625 -0.103125 -0.093457 -0.0128906 -0.00644531 0.0708984 0.331934 0.148242 -0.0515625 -0.0805664 -0.312598 -0.248145 -0.219141 -0.14502 -0.0644531 0.0612305 0.0225586 0.0999023 0.0805664 0.0451172 -0.0580078 -0.0644531 -0.0128906 0.0225586 -0.103125 -0.0805664 -0.0128906 -0.0128906 0.0386719 -0.103125 0.0612305 0.0805664 0.0773437 0.0483398 0.0547852 0.0225586 -0.00644531 -0.0257812 -0.0515625 -0.116016 -0.151465 -0.15791 -0.135352 -0.116016 -0.0644531 -0.0483398 -0.0225586 -0.0257812 -0.0128906 -0.0805664 -0.103125 -0.10957 -0.103125 -0.103125 -0.0515625 -0.0257812 0 -0.00644531 -0.0418945 -0.0418945 -0.0257812 -0.0515625 -0.0483398 -0.0580078 -0.00322266 0 -0.0257812 -0.00322266 0.00966797 0.0290039 0.0225586 -0.0741211 -0.0418945 -0.0257812 0.00322266 0.0225586 0.0386719 0.0386719 0.0225586 -0.0225586 -0.0257812 -0.0257812 0 0.0483398 0.0547852 0.0225586 -0.00644531 -0.0257812 -0.0515625 -0.116016 -0.151465 -0.15791 -0.135352 -0.116016 -0.0644531 -0.0483398 -0.0225586 -0.0257812 -0.0128906 -0.0805664 -0.103125 -0.10957 -0.103125 -0.103125 -0.0515625 -0.0257812 0 -0.00644531 -0.0418945 -0.0418945 -0.0257812 -0.0515625 -0.0483398 -0.0580078 -0.00322266 0 -0.0257812 -0.00322266 0.00966797 0.0290039 0.0225586 -0.0741211 -0.0418945 -0.0257812 0.00322266 0.0225586 0.0386719 0.0386719 0.0225586 -0.0225586 -0.0257812 -0.0257812 -0.0257812 -0.0257812 0.00322266 0.0386719 0.0386719 0.0483398 0.0193359 0.00322266 -0.0418945 -0.0580078 -0.0515625 -0.0257812 0.00966797 0.0225586 0.0483398 0.0225586 0.0225586 -0.0128906 -0.0483398 -0.0644531 -0.0805664 -0.0418945 0.00322266 0.0386719 0.0386719 0.0451172 0.0193359 -0.0225586 -0.0644531 -0.093457 -0.0644531 -0.0257812 0.0225586 0.0773437 0.0966797 0.0805664 0.0225586 -0.0257812 -0.093457 -0.116016 -0.0999023 -0.0515625 0.0225586 0.0773437 0.125684 0.0805664 0.0290039 -0.0515625 -0.103125 -0.15791 0 -0.0257812 0.00322266 0.0386719 0.0386719 0.0483398 0.0193359 0.00322266 -0.0418945 -0.0580078 -0.0515625 -0.0257812 0.00966797 0.0225586 0.0483398 0.0225586 0.0225586 -0.0128906 -0.0483398 -0.0644531 -0.0805664 -0.0418945 0.00322266 0.0386719 0.0386719 0.0451172 0.0193359 -0.0225586 -0.0644531 -0.093457 -0.0644531 -0.0257812 0.0225586 0.0773437 0.0966797 0.0805664 0.0225586 -0.0257812 -0.093457 -0.116016 -0.0999023 -0.0515625 0.0225586 0.0773437 0.125684 0.0805664 0.0290039 -0.0515625 -0.103125 -0.15791 -0.103125 -0.0515625 0 0.112793 0.141797 0.0999023 0.0354492 -0.0644531 -0.125684 -0.151465 -0.103125 -0.0257812 0.0483398 0.112793 0.125684 0.0773437 0.0290039 -0.0515625 -0.103125 -0.161133 -0.14502 -0.0580078 0.0225586 0.0902344 0.112793 0.0773437 0.00322266 -0.0644531 -0.128906 -0.15791 -0.116016 -0.0515625 0.0225586 0.0773437 0.0902344 0.0483398 0.0225586 -0.0644531 -0.116016 -0.15791 -0.116016 -0.0580078 0.00966797 0.0708984 0.0902344 0.0547852 0.0225586 -0.0418945 -0.10957 -0.128906 0 -0.0515625 0 0.112793 0.141797 0.0999023 0.0354492 -0.0644531 -0.125684 -0.151465 -0.103125 -0.0257812 0.0483398 0.112793 0.125684 0.0773437 0.0290039 -0.0515625 -0.103125 -0.161133 -0.14502 -0.0580078 0.0225586 0.0902344 0.112793 0.0773437 0.00322266 -0.0644531 -0.128906 -0.15791 -0.116016 -0.0515625 0.0225586 0.0773437 0.0902344 0.0483398 0.0225586 -0.0644531 -0.116016 -0.15791 -0.116016 -0.0580078 0.00966797 0.0708984 0.0902344 0.0547852 0.0225586 -0.0418945 -0.10957 -0.128906 -0.103125 -0.0483398 0.0128906 0.0708984 0.0902344 0.0451172 0 -0.0805664 -0.093457 -0.128906 -0.0644531 -0.0515625 0.0225586 0.0483398 0.0483398 0.0483398 0.00966797 -0.0418945 -0.0805664 -0.103125 -0.0837891 -0.0515625 0.00322266 0.0451172 0.0612305 0.0483398 0.0225586 -0.0483398 -0.0805664 -0.103125 -0.0837891 -0.0515625 0 0.0386719 0.0451172 0.0451172 0.0386719 -0.0257812 -0.0741211 -0.093457 -0.0805664 -0.0257812 0.00966797 0.0612305 0.0999023 0.0773437 0.0225586 -0.0322266 -0.093457 -0.103125 0 -0.0483398 0.0128906 0.0708984 0.0902344 0.0451172 0 -0.0805664 -0.093457 -0.128906 -0.0644531 -0.0515625 0.0225586 0.0483398 0.0483398 0.0483398 0.00966797 -0.0418945 -0.0805664 -0.103125 -0.0837891 -0.0515625 0.00322266 0.0451172 0.0612305 0.0483398 0.0225586 -0.0483398 -0.0805664 -0.103125 -0.0837891 -0.0515625 0 0.0386719 0.0451172 0.0451172 0.0386719 -0.0257812 -0.0741211 -0.093457 -0.0805664 -0.0257812 0.00966797 0.0612305 0.0999023 0.0773437 0.0225586 -0.0322266 -0.093457 -0.103125 -0.0837891 -0.0515625 0.00966797 0.0612305 0.0708984 0.0773437 0.0193359 -0.0257812 -0.0805664 -0.10957 -0.0805664 -0.0515625 0.00966797 0.0483398 0.0773437 0.0547852 0.0225586 -0.0257812 -0.0805664 -0.103125 -0.0805664 -0.0515625 0.00966797 0.0773437 0.0999023 0.0773437 0.0225586 -0.0257812 -0.0805664 -0.125684 -0.0999023 -0.0418945 0.00322266 0.0644531 0.0999023 0.0547852 0.0225586 -0.0644531 -0.093457 -0.103125 -0.0805664 -0.0515625 0.00966797 0.0612305 0.0902344 0.0612305 0.0225586 -0.0515625 -0.093457 -0.128906 0 -0.0515625 0.00966797 0.0612305 0.0708984 0.0773437 0.0193359 -0.0257812 -0.0805664 -0.10957 -0.0805664 -0.0515625 0.00966797 0.0483398 0.0773437 0.0547852 0.0225586 -0.0257812 -0.0805664 -0.103125 -0.0805664 -0.0515625 0.00966797 0.0773437 0.0999023 0.0773437 0.0225586 -0.0257812 -0.0805664 -0.125684 -0.0999023 -0.0418945 0.00322266 0.0644531 0.0999023 0.0547852 0.0225586 -0.0644531 -0.093457 -0.103125 -0.0805664 -0.0515625 0.00966797 0.0612305 0.0902344 0.0612305 0.0225586 -0.0515625 -0.093457 -0.128906 -0.103125 -0.0418945 0.00322266 0.0483398 0.0773437 0.0547852 0.0193359 -0.0322266 -0.0837891 -0.103125 -0.093457 -0.0515625 0 0.0483398 0.0773437 0.0483398 0.00322266 -0.0257812 -0.0805664 -0.103125 -0.093457 -0.0418945 0 0.0483398 0.0612305 0.0386719 0.00322266 -0.0257812 -0.0515625 -0.093457 -0.093457 -0.0515625 0 0.0386719 0.0612305 0.0547852 0.0225586 -0.0257812 -0.0644531 -0.0999023 -0.0805664 -0.0418945 0.00966797 0.0483398 0.0708984 0.0612305 0.0225586 -0.0483398 -0.0483398 -0.116016 0 -0.0418945 0.00322266 0.0483398 0.0773437 0.0547852 0.0193359 -0.0322266 -0.0837891 -0.103125 -0.093457 -0.0515625 0 0.0483398 0.0773437 0.0483398 0.00322266 -0.0257812 -0.0805664 -0.103125 -0.093457 -0.0418945 0 0.0483398 0.0612305 0.0386719 0.00322266 -0.0257812 -0.0515625 -0.093457 -0.093457 -0.0515625 0 0.0386719 0.0612305 0.0547852 0.0225586 -0.0257812 -0.0644531 -0.0999023 -0.0805664 -0.0418945 0.00966797 0.0483398 0.0708984 0.0612305 0.0225586 -0.0483398 -0.0483398 -0.116016 -0.0837891 -0.0483398 0.00966797 0.0451172 0.0773437 0.0773437 0.0225586 -0.0257812 -0.093457 -0.103125 -0.093457 -0.0515625 0 0.0773437 0.0999023 0.0547852 0.00966797 -0.0418945 -0.0805664 -0.103125 -0.093457 -0.0515625 0.0193359 0.0547852 0.0773437 0.0483398 0.0193359 -0.0257812 -0.0805664 -0.103125 -0.0805664 -0.0418945 0.0193359 0.0612305 0.0483398 0.0451172 0.0225586 -0.0257812 -0.093457 -0.0999023 -0.0805664 -0.0515625 0.0225586 0.0483398 0.0902344 0.0966797 0.0225586 -0.0515625 -0.0999023 -0.128906 0 -0.0483398 0.00966797 0.0451172 0.0773437 0.0773437 0.0225586 -0.0257812 -0.093457 -0.103125 -0.093457 -0.0515625 0 0.0773437 0.0999023 0.0547852 0.00966797 -0.0418945 -0.0805664 -0.103125 -0.093457 -0.0515625 0.0193359 0.0547852 0.0773437 0.0483398 0.0193359 -0.0257812 -0.0805664 -0.103125 -0.0805664 -0.0418945 0.0193359 0.0612305 0.0483398 0.0451172 0.0225586 -0.0257812 -0.093457 -0.0999023 -0.0805664 -0.0515625 0.0225586 0.0483398 0.0902344 0.0966797 0.0225586 -0.0515625 -0.0999023 -0.128906 -0.093457 -0.0257812 0.00966797 0.0773437 0.0805664 0.0612305 0.0193359 -0.0418945 -0.093457 -0.103125 -0.093457 -0.0483398 0 0.0612305 0.0966797 0.0547852 0.00322266 -0.0483398 -0.0999023 -0.10957 -0.0805664 -0.0418945 0.00966797 0.0708984 0.0773437 0.0902344 0.0225586 -0.0483398 -0.103125 -0.116016 -0.093457 -0.0418945 -0.00322266 0.0612305 0.0902344 0.0902344 0.0386719 -0.0418945 -0.093457 -0.128906 -0.103125 -0.0418945 0.0225586 0.0773437 0.0966797 0.0773437 0.00322266 -0.0515625 -0.103125 -0.128906 0 -0.0257812 0.00966797 0.0773437 0.0805664 0.0612305 0.0193359 -0.0418945 -0.093457 -0.103125 -0.093457 -0.0483398 0 0.0612305 0.0966797 0.0547852 0.00322266 -0.0483398 -0.0999023 -0.10957 -0.0805664 -0.0418945 0.00966797 0.0708984 0.0773437 0.0902344 0.0225586 -0.0483398 -0.103125 -0.116016 -0.093457 -0.0418945 -0.00322266 0.0612305 0.0902344 0.0902344 0.0386719 -0.0418945 -0.093457 -0.128906 -0.103125 -0.0418945 0.0225586 0.0773437 0.0966797 0.0773437 0.00322266 -0.0515625 -0.103125 -0.128906 -0.093457 -0.0515625 0.00322266 0.0612305 0.0773437 0.0547852 0.0225586 -0.0483398 -0.093457 -0.0999023 -0.103125 -0.0257812 0 0.0547852 0.0773437 0.0547852 0.0128906 -0.0418945 -0.0805664 -0.103125 -0.0805664 -0.0418945 0.00966797 0.0483398 0.0773437 0.0483398 0.00966797 -0.0418945 -0.0805664 -0.103125 -0.0805664 -0.0515625 0 0.0483398 0.0612305 0.0483398 0.0225586 -0.0257812 -0.0741211 -0.0999023 -0.0805664 -0.0418945 0 0.0483398 0.0773437 0.0483398 0.0225586 -0.0483398 -0.0837891 -0.0805664 0 -0.0515625 0.00322266 0.0612305 0.0773437 0.0547852 0.0225586 -0.0483398 -0.093457 -0.0999023 -0.103125 -0.0257812 0 0.0547852 0.0773437 0.0547852 0.0128906 -0.0418945 -0.0805664 -0.103125 -0.0805664 -0.0418945 0.00966797 0.0483398 0.0773437 0.0483398 0.00966797 -0.0418945 -0.0805664 -0.103125 -0.0805664 -0.0515625 0 0.0483398 0.0612305 0.0483398 0.0225586 -0.0257812 -0.0741211 -0.0999023 -0.0805664 -0.0418945 0 0.0483398 0.0773437 0.0483398 0.0225586 -0.0483398 -0.0837891 -0.0805664 -0.0805664 -0.0257812 0 0.0483398 0.0773437 0.0483398 0.00966797 -0.0257812 -0.0805664 -0.093457 -0.0805664 -0.0483398 0.00322266 0.0483398 0.0612305 0.0547852 -0.00644531 -0.0257812 -0.0741211 -0.093457 -0.0805664 -0.0483398 0.00966797 0.0483398 0.0773437 0.0612305 0.0225586 -0.0257812 -0.0644531 -0.0999023 -0.0805664 -0.0515625 0.00322266 0.0483398 0.0708984 0.0708984 0.0225586 -0.0418945 -0.0805664 -0.0999023 -0.093457 -0.0418945 0.00966797 0.0483398 0.0805664 0.0612305 0.0225586 -0.0257812 -0.0837891 -0.093457 0 -0.0257812 0 0.0483398 0.0773437 0.0483398 0.00966797 -0.0257812 -0.0805664 -0.093457 -0.0805664 -0.0483398 0.00322266 0.0483398 0.0612305 0.0547852 -0.00644531 -0.0257812 -0.0741211 -0.093457 -0.0805664 -0.0483398 0.00966797 0.0483398 0.0773437 0.0612305 0.0225586 -0.0257812 -0.0644531 -0.0999023 -0.0805664 -0.0515625 0.00322266 0.0483398 0.0708984 0.0708984 0.0225586 -0.0418945 -0.0805664 -0.0999023 -0.093457 -0.0418945 0.00966797 0.0483398 0.0805664 0.0612305 0.0225586 -0.0257812 -0.0837891 -0.093457 -0.093457 -0.0515625 0.00966797 0.0451172 0.0773437 0.0547852 0.00966797 -0.0418945 -0.0805664 -0.0999023 -0.0902344 -0.0483398 0.00322266 0.0547852 0.0966797 0.0773437 0.0290039 -0.0483398 -0.093457 -0.10957 -0.103125 -0.0515625 0.00966797 0.0386719 0.0612305 0.0451172 0.0225586 -0.0225586 -0.0805664 -0.0999023 -0.103125 -0.0515625 0 0.0483398 0.0773437 0.0483398 0.0128906 -0.0322266 -0.0805664 -0.103125 -0.0902344 -0.0483398 0.00966797 0.0547852 0.0902344 0.0483398 0.0225586 -0.0257812 -0.0837891 -0.0999023 0 -0.0515625 0.00966797 0.0451172 0.0773437 0.0547852 0.00966797 -0.0418945 -0.0805664 -0.0999023 -0.0902344 -0.0483398 0.00322266 0.0547852 0.0966797 0.0773437 0.0290039 -0.0483398 -0.093457 -0.10957 -0.103125 -0.0515625 0.00966797 0.0386719 0.0612305 0.0451172 0.0225586 -0.0225586 -0.0805664 -0.0999023 -0.103125 -0.0515625 0 0.0483398 0.0773437 0.0483398 0.0128906 -0.0322266 -0.0805664 -0.103125 -0.0902344 -0.0483398 0.00966797 0.0547852 0.0902344 0.0483398 0.0225586 -0.0257812 -0.0837891 -0.0999023 -0.0805664 -0.0515625 0.00966797 0.0612305 0.0902344 0.0708984 0.0225586 -0.0483398 -0.0999023 -0.10957 -0.0837891 -0.0483398 0.0193359 0.0612305 0.0805664 0.0483398 0.0225586 -0.0418945 -0.093457 -0.103125 -0.093457 -0.0483398 0 0.0483398 0.0708984 0.0483398 0 -0.0322266 -0.0837891 -0.093457 -0.0805664 -0.0644531 0.00966797 0.0483398 0.0902344 0.0483398 0.0225586 -0.0418945 -0.0805664 -0.0837891 -0.103125 -0.0580078 0.00322266 0.0773437 0.0999023 0.0773437 0.0193359 -0.0322266 -0.093457 -0.128906 0 -0.0515625 0.00966797 0.0612305 0.0902344 0.0708984 0.0225586 -0.0483398 -0.0999023 -0.10957 -0.0837891 -0.0483398 0.0193359 0.0612305 0.0805664 0.0483398 0.0225586 -0.0418945 -0.093457 -0.103125 -0.093457 -0.0483398 0 0.0483398 0.0708984 0.0483398 0 -0.0322266 -0.0837891 -0.093457 -0.0805664 -0.0644531 0.00966797 0.0483398 0.0902344 0.0483398 0.0225586 -0.0418945 -0.0805664 -0.0837891 -0.103125 -0.0580078 0.00322266 0.0773437 0.0999023 0.0773437 0.0193359 -0.0322266 -0.093457 -0.128906 -0.0837891 -0.0418945 0.0386719 0.0773437 0.0999023 0.0773437 0.0225586 -0.0418945 -0.093457 -0.103125 -0.103125 -0.0515625 0 0.0483398 0.0902344 0.0773437 0.0225586 -0.0515625 -0.0999023 -0.125684 -0.0999023 -0.0418945 0.0225586 0.0773437 0.0966797 0.0773437 0.00966797 -0.0418945 -0.093457 -0.128906 -0.103125 -0.0515625 0.0225586 0.0708984 0.0966797 0.0708984 0.0225586 -0.0418945 -0.103125 -0.10957 -0.103125 -0.0483398 0.00966797 0.0773437 0.0999023 0.0708984 0.00966797 -0.0483398 -0.0837891 -0.128906 0 -0.0418945 0.0386719 0.0773437 0.0999023 0.0773437 0.0225586 -0.0418945 -0.093457 -0.103125 -0.103125 -0.0515625 0 0.0483398 0.0902344 0.0773437 0.0225586 -0.0515625 -0.0999023 -0.125684 -0.0999023 -0.0418945 0.0225586 0.0773437 0.0966797 0.0773437 0.00966797 -0.0418945 -0.093457 -0.128906 -0.103125 -0.0515625 0.0225586 0.0708984 0.0966797 0.0708984 0.0225586 -0.0418945 -0.103125 -0.10957 -0.103125 -0.0483398 0.00966797 0.0773437 0.0999023 0.0708984 0.00966797 -0.0483398 -0.0837891 -0.128906 -0.093457 -0.0515625 0.00966797 0.0612305 0.0999023 0.0612305 0.0225586 -0.0515625 -0.103125 -0.116016 -0.103125 -0.0515625 0.00966797 0.0773437 0.0902344 0.0708984 0.0225586 -0.0418945 -0.093457 -0.116016 -0.103125 -0.0580078 0.00966797 0.0708984 0.0966797 0.0773437 0.0225586 -0.0483398 -0.093457 -0.116016 -0.093457 -0.0515625 0.0193359 0.0612305 0.0773437 0.0612305 0.0225586 -0.0322266 -0.093457 -0.116016 -0.093457 -0.0418945 0.0193359 0.0773437 0.0805664 0.0773437 0.00966797 -0.0483398 -0.103125 -0.128906 0 -0.0515625 0.00966797 0.0612305 0.0999023 0.0612305 0.0225586 -0.0515625 -0.103125 -0.116016 -0.103125 -0.0515625 0.00966797 0.0773437 0.0902344 0.0708984 0.0225586 -0.0418945 -0.093457 -0.116016 -0.103125 -0.0580078 0.00966797 0.0708984 0.0966797 0.0773437 0.0225586 -0.0483398 -0.093457 -0.116016 -0.093457 -0.0515625 0.0193359 0.0612305 0.0773437 0.0612305 0.0225586 -0.0322266 -0.093457 -0.116016 -0.093457 -0.0418945 0.0193359 0.0773437 0.0805664 0.0773437 0.00966797 -0.0483398 -0.103125 -0.128906 -0.093457 -0.0580078 0.00966797 0.0773437 0.0999023 0.0966797 0.0225586 -0.0580078 -0.10957 -0.128906 -0.10957 -0.0418945 0.0290039 0.0773437 0.0902344 0.0612305 0.00966797 -0.0515625 -0.103125 -0.103125 -0.093457 -0.0483398 0.00966797 0.0547852 0.0999023 0.0773437 0.00966797 -0.0418945 -0.093457 -0.128906 -0.103125 -0.0483398 0.0193359 0.0773437 0.0999023 0.0612305 0.00966797 -0.0515625 -0.093457 -0.116016 -0.103125 -0.0418945 0.00966797 0.0773437 0.0966797 0.0547852 0.00966797 -0.0580078 -0.0999023 -0.103125 0 -0.0580078 0.00966797 0.0773437 0.0999023 0.0966797 0.0225586 -0.0580078 -0.10957 -0.128906 -0.10957 -0.0418945 0.0290039 0.0773437 0.0902344 0.0612305 0.00966797 -0.0515625 -0.103125 -0.103125 -0.093457 -0.0483398 0.00966797 0.0547852 0.0999023 0.0773437 0.00966797 -0.0418945 -0.093457 -0.128906 -0.103125 -0.0483398 0.0193359 0.0773437 0.0999023 0.0612305 0.00966797 -0.0515625 -0.093457 -0.116016 -0.103125 -0.0418945 0.00966797 0.0773437 0.0966797 0.0547852 0.00966797 -0.0580078 -0.0999023 -0.103125 -0.0999023 -0.0515625 0.00322266 0.0773437 0.0999023 0.0708984 0.0386719 -0.0418945 -0.103125 -0.128906 -0.103125 -0.0418945 0.0225586 0.0612305 0.0902344 0.0773437 0.0225586 -0.0257812 -0.103125 -0.116016 -0.0837891 -0.0515625 0.0290039 0.0902344 0.0773437 0.0773437 0.0483398 -0.0644531 -0.0580078 -0.125684 -0.116016 -0.0805664 -0.0128906 0.112793 0.125684 0.112793 0.0805664 0.0902344 0.0483398 -0.0483398 -0.0805664 0.0708984 0.180469 0.183691 0.199805 0.112793 0.0483398 -0.286816 -0.00322266 -0.248145 0 -0.0515625 0.00322266 0.0773437 0.0999023 0.0708984 0.0386719 -0.0418945 -0.103125 -0.128906 -0.103125 -0.0418945 0.0225586 0.0612305 0.0902344 0.0773437 0.0225586 -0.0257812 -0.103125 -0.116016 -0.0837891 -0.0515625 0.0290039 0.0902344 0.0773437 0.0773437 0.0483398 -0.0644531 -0.0580078 -0.125684 -0.116016 -0.0805664 -0.0128906 0.112793 0.125684 0.112793 0.0805664 0.0902344 0.0483398 -0.0483398 -0.0805664 0.0708984 0.180469 0.183691 0.199805 0.112793 0.0483398 -0.286816 -0.00322266 -0.248145 -0.286816 -0.167578 -0.0999023 -0.248145 -0.0805664 -0.0805664 -0.125684 0.0773437 0.0773437 0.0999023 -0.0257812 0.0193359 -0.15791 0.154687 0.286816 0.193359 -0.103125 -0.470508 -0.125684 0.125684 0.235254 0.0483398 0.193359 0.203027 -0.125684 -0.0805664 -0.00322266 -0.00322266 -0.0418945 -0.00322266 -0.219141 -0.116016 -0.103125 0.0902344 0.112793 -0.0418945 0.0290039 -0.0483398 -0.116016 -0.116016 0.203027 0 0.0225586 -0.0257812 0.0547852 -0.493066 -0.992578 -0.754102 -0.373828 -0.0805664 0 -0.167578 -0.0999023 -0.248145 -0.0805664 -0.0805664 -0.125684 0.0773437 0.0773437 0.0999023 -0.0257812 0.0193359 -0.15791 0.154687 0.286816 0.193359 -0.103125 -0.470508 -0.125684 0.125684 0.235254 0.0483398 0.193359 0.203027 -0.125684 -0.0805664 -0.00322266 -0.00322266 -0.0418945 -0.00322266 -0.219141 -0.116016 -0.103125 0.0902344 0.112793 -0.0418945 0.0290039 -0.0483398 -0.116016 -0.116016 0.203027 0 0.0225586 -0.0257812 0.0547852 -0.493066 -0.992578 -0.754102 -0.373828 -0.0805664 0.360937 0.309375 0.525293 0.36416 0.576855 0.435059 0.193359 -0.141797 -0.167578 -0.15791 -0.25459 -0.609082 -0.454395 -0.15791 0.0708984 0.0547852 -0.00644531 -0.196582 -0.20625 -0.0257812 0.0805664 0.225586 0.370605 0.283594 0.193359 0.180469 0.0999023 0 -0.15791 -0.196582 -0.128906 -0.0515625 -0.0257812 -0.0515625 0.154687 0.148242 -0.196582 -0.322266 -0.232031 -0.0225586 -0.438281 -0.341602 -0.93457 -0.335156 0.0966797 0.203027 0.251367 0.441504 0.26748 0.193359 0 0.309375 0.525293 0.36416 0.576855 0.435059 0.193359 -0.141797 -0.167578 -0.15791 -0.25459 -0.609082 -0.454395 -0.15791 0.0708984 0.0547852 -0.00644531 -0.196582 -0.20625 -0.0257812 0.0805664 0.225586 0.370605 0.283594 0.193359 0.180469 0.0999023 0 -0.15791 -0.196582 -0.128906 -0.0515625 -0.0257812 -0.0515625 0.154687 0.148242 -0.196582 -0.322266 -0.232031 -0.0225586 -0.438281 -0.341602 -0.93457 -0.335156 0.0966797 0.203027 0.251367 0.441504 0.26748 0.193359 0.203027 0.312598 0.36416 0.15791 0.0999023 0.0386719 -0.0999023 -0.20625 -0.232031 -0.193359 -0.135352 -0.14502 -0.128906 -0.0515625 -0.0128906 -0.0257812 -0.0644531 -0.0515625 -0.125684 -0.0644531 -0.116016 -0.0805664 -0.0128906 0.00966797 0.141797 0.0902344 0.00966797 0.0225586 -0.0483398 -0.0805664 -0.0644531 -0.0418945 0.00966797 0.0483398 0.0773437 0.0483398 0.0225586 -0.0257812 -0.0128906 -0.00322266 0.00966797 -0.0257812 -0.0128906 0.00322266 0.0483398 0.0193359 0.00966797 0.00966797 -0.0128906 -0.0128906 0 0.312598 0.36416 0.15791 0.0999023 0.0386719 -0.0999023 -0.20625 -0.232031 -0.193359 -0.135352 -0.14502 -0.128906 -0.0515625 -0.0128906 -0.0257812 -0.0644531 -0.0515625 -0.125684 -0.0644531 -0.116016 -0.0805664 -0.0128906 0.00966797 0.141797 0.0902344 0.00966797 0.0225586 -0.0483398 -0.0805664 -0.0644531 -0.0418945 0.00966797 0.0483398 0.0773437 0.0483398 0.0225586 -0.0257812 -0.0128906 -0.00322266 0.00966797 -0.0257812 -0.0128906 0.00322266 0.0483398 0.0193359 0.00966797 0.00966797 -0.0128906 -0.0128906 -0.00644531 -0.0257812 -0.0418945 -0.0225586 -0.0257812 0 0 -0.0128906 -0.0805664 -0.0805664 -0.0515625 -0.0257812 0 0.0483398 0.0773437 0.0612305 0.0225586 -0.0257812 -0.0257812 -0.103125 -0.0805664 -0.0515625 0.0193359 0.0386719 0.0644531 0.0483398 0.0193359 -0.0515625 -0.0805664 -0.103125 -0.093457 -0.0515625 0.00322266 0.0386719 0.0773437 0.0483398 0.00966797 -0.0483398 -0.0999023 -0.116016 -0.093457 -0.0418945 0.0225586 0.0773437 0.0773437 0.0612305 0.0290039 -0.0257812 -0.0805664 -0.103125 0 -0.0257812 -0.0418945 -0.0225586 -0.0257812 0 0 -0.0128906 -0.0805664 -0.0805664 -0.0515625 -0.0257812 0 0.0483398 0.0773437 0.0612305 0.0225586 -0.0257812 -0.0257812 -0.103125 -0.0805664 -0.0515625 0.0193359 0.0386719 0.0644531 0.0483398 0.0193359 -0.0515625 -0.0805664 -0.103125 -0.093457 -0.0515625 0.00322266 0.0386719 0.0773437 0.0483398 0.00966797 -0.0483398 -0.0999023 -0.116016 -0.093457 -0.0418945 0.0225586 0.0773437 0.0773437 0.0612305 0.0290039 -0.0257812 -0.0805664 -0.103125 -0.0837891 -0.0515625 0.00966797 0.0483398 0.0902344 0.0773437 0.0290039 -0.0257812 -0.093457 -0.128906 -0.0837891 -0.0515625 -0.0225586 0.0290039 0.0483398 0.0451172 0 -0.0257812 -0.0805664 -0.103125 -0.0805664 -0.0547852 0.00966797 0.0483398 0.0999023 0.0902344 0 -0.0257812 -0.093457 -0.10957 -0.0837891 -0.0515625 0.00322266 0.0708984 0.0902344 0.0773437 0.00966797 -0.0741211 -0.093457 -0.103125 -0.0805664 -0.0483398 -0.0257812 0.0225586 0.0483398 0.0386719 0.00322266 -0.0257812 -0.0644531 -0.093457 0 -0.0515625 0.00966797 0.0483398 0.0902344 0.0773437 0.0290039 -0.0257812 -0.093457 -0.128906 -0.0837891 -0.0515625 -0.0225586 0.0290039 0.0483398 0.0451172 0 -0.0257812 -0.0805664 -0.103125 -0.0805664 -0.0547852 0.00966797 0.0483398 0.0999023 0.0902344 0 -0.0257812 -0.093457 -0.10957 -0.0837891 -0.0515625 0.00322266 0.0708984 0.0902344 0.0773437 0.00966797 -0.0741211 -0.093457 -0.103125 -0.0805664 -0.0483398 -0.0257812 0.0225586 0.0483398 0.0386719 0.00322266 -0.0257812 -0.0644531 -0.093457 -0.0805664 -0.0257812 0.00322266 0.0386719 0.0708984 0.0547852 0.0225586 -0.0483398 -0.0805664 -0.103125 -0.0902344 -0.0418945 0.0225586 0.0773437 0.0902344 0.0612305 0.0193359 -0.0257812 -0.0805664 -0.0999023 -0.0805664 -0.0483398 -0.00644531 0.0225586 0.0612305 0.0483398 0.0193359 -0.0257812 -0.0805664 -0.093457 -0.0805664 -0.0483398 -0.0128906 0.0386719 0.0483398 0.0483398 0.00966797 -0.0257812 -0.0805664 -0.093457 -0.0805664 -0.0418945 0.00966797 0.0483398 0.0612305 0.0386719 0 -0.0257812 -0.0580078 -0.093457 0 -0.0257812 0.00322266 0.0386719 0.0708984 0.0547852 0.0225586 -0.0483398 -0.0805664 -0.103125 -0.0902344 -0.0418945 0.0225586 0.0773437 0.0902344 0.0612305 0.0193359 -0.0257812 -0.0805664 -0.0999023 -0.0805664 -0.0483398 -0.00644531 0.0225586 0.0612305 0.0483398 0.0193359 -0.0257812 -0.0805664 -0.093457 -0.0805664 -0.0483398 -0.0128906 0.0386719 0.0483398 0.0483398 0.00966797 -0.0257812 -0.0805664 -0.093457 -0.0805664 -0.0418945 0.00966797 0.0483398 0.0612305 0.0386719 0 -0.0257812 -0.0580078 -0.093457 -0.0644531 -0.0386719 0.00322266 0.0386719 0.0547852 0.0483398 0 -0.0257812 -0.0644531 -0.0837891 -0.0580078 -0.0418945 -0.00322266 0.0386719 0.0773437 0.0483398 0.0386719 -0.0257812 -0.093457 -0.103125 -0.0741211 -0.0257812 -0.00322266 0.0612305 0.0902344 0.0708984 0.0193359 -0.0322266 -0.0805664 -0.0837891 -0.0805664 -0.0580078 0.0193359 0.0547852 0.0805664 0.0612305 0.00322266 -0.0257812 -0.0805664 -0.093457 -0.0805664 -0.0322266 0.00322266 0.0483398 0.0483398 0.0386719 0.00966797 -0.0257812 -0.0644531 -0.093457 0 -0.0386719 0.00322266 0.0386719 0.0547852 0.0483398 0 -0.0257812 -0.0644531 -0.0837891 -0.0580078 -0.0418945 -0.00322266 0.0386719 0.0773437 0.0483398 0.0386719 -0.0257812 -0.093457 -0.103125 -0.0741211 -0.0257812 -0.00322266 0.0612305 0.0902344 0.0708984 0.0193359 -0.0322266 -0.0805664 -0.0837891 -0.0805664 -0.0580078 0.0193359 0.0547852 0.0805664 0.0612305 0.00322266 -0.0257812 -0.0805664 -0.093457 -0.0805664 -0.0322266 0.00322266 0.0483398 0.0483398 0.0386719 0.00966797 -0.0257812 -0.0644531 -0.093457 -0.0644531 -0.0515625 -0.00644531 0.0483398 0.0773437 0.0451172 -0.0257812 -0.0257812 -0.0741211 -0.093457 -0.0805664 -0.0418945 0.00966797 0.0483398 0.0805664 0.0225586 0.0225586 -0.0418945 -0.0741211 -0.103125 -0.0837891 -0.0483398 0.00966797 0.0547852 0.0902344 0.0708984 0.0225586 -0.0257812 -0.0805664 -0.103125 -0.093457 -0.0418945 0.0225586 0.0773437 0.0966797 0.0773437 0.0193359 -0.0515625 -0.093457 -0.116016 -0.093457 -0.0515625 0 0.0773437 0.0902344 0.0773437 0.0225586 -0.0418945 -0.093457 -0.116016 0 -0.0515625 -0.00644531 0.0483398 0.0773437 0.0451172 -0.0257812 -0.0257812 -0.0741211 -0.093457 -0.0805664 -0.0418945 0.00966797 0.0483398 0.0805664 0.0225586 0.0225586 -0.0418945 -0.0741211 -0.103125 -0.0837891 -0.0483398 0.00966797 0.0547852 0.0902344 0.0708984 0.0225586 -0.0257812 -0.0805664 -0.103125 -0.093457 -0.0418945 0.0225586 0.0773437 0.0966797 0.0773437 0.0193359 -0.0515625 -0.093457 -0.116016 -0.093457 -0.0515625 0 0.0773437 0.0902344 0.0773437 0.0225586 -0.0418945 -0.093457 -0.116016 -0.0999023 -0.0418945 0.00966797 0.0483398 0.0773437 0.0612305 0.00966797 -0.0418945 -0.0999023 -0.116016 -0.093457 -0.0418945 0.0225586 0.0547852 0.0902344 0.0612305 0.00966797 -0.0257812 -0.093457 -0.116016 -0.0805664 -0.0483398 0 0.0612305 0.0902344 0.0612305 0.0193359 -0.0257812 -0.0837891 -0.116016 -0.093457 -0.0418945 0.0193359 0.0612305 0.0773437 0.0612305 0.0225586 -0.0257812 -0.0805664 -0.125684 -0.0805664 -0.0418945 0.00966797 0.0483398 0.0805664 0.0773437 0.0225586 -0.0257812 -0.0805664 -0.125684 0 -0.0418945 0.00966797 0.0483398 0.0773437 0.0612305 0.00966797 -0.0418945 -0.0999023 -0.116016 -0.093457 -0.0418945 0.0225586 0.0547852 0.0902344 0.0612305 0.00966797 -0.0257812 -0.093457 -0.116016 -0.0805664 -0.0483398 0 0.0612305 0.0902344 0.0612305 0.0193359 -0.0257812 -0.0837891 -0.116016 -0.093457 -0.0418945 0.0193359 0.0612305 0.0773437 0.0612305 0.0225586 -0.0257812 -0.0805664 -0.125684 -0.0805664 -0.0418945 0.00966797 0.0483398 0.0805664 0.0773437 0.0225586 -0.0257812 -0.0805664 -0.125684 -0.103125 -0.0418945 0.0193359 0.0612305 0.0773437 0.0612305 0.00322266 -0.0322266 -0.093457 -0.103125 -0.0837891 -0.0418945 0.0225586 0.0547852 0.0966797 0.0612305 0.0225586 -0.0418945 -0.103125 -0.103125 -0.0837891 -0.0418945 0.00966797 0.0773437 0.0902344 0.0547852 0.0225586 -0.0257812 -0.0837891 -0.116016 -0.0805664 -0.0483398 0 0.0483398 0.0773437 0.0612305 0.0225586 -0.0257812 -0.0837891 -0.116016 -0.0999023 -0.0418945 0 0.0483398 0.0902344 0.0483398 0.0193359 -0.0257812 -0.093457 -0.10957 0 -0.0418945 0.0193359 0.0612305 0.0773437 0.0612305 0.00322266 -0.0322266 -0.093457 -0.103125 -0.0837891 -0.0418945 0.0225586 0.0547852 0.0966797 0.0612305 0.0225586 -0.0418945 -0.103125 -0.103125 -0.0837891 -0.0418945 0.00966797 0.0773437 0.0902344 0.0547852 0.0225586 -0.0257812 -0.0837891 -0.116016 -0.0805664 -0.0483398 0 0.0483398 0.0773437 0.0612305 0.0225586 -0.0257812 -0.0837891 -0.116016 -0.0999023 -0.0418945 0 0.0483398 0.0902344 0.0483398 0.0193359 -0.0257812 -0.093457 -0.10957 -0.093457 -0.0483398 0.0193359 0.0547852 0.0902344 0.0483398 0.0193359 -0.0418945 -0.0805664 -0.116016 -0.093457 -0.0515625 0.00966797 0.0483398 0.0805664 0.0773437 0.0225586 -0.0418945 -0.093457 -0.103125 -0.093457 -0.0483398 0 0.0451172 0.0773437 0.0612305 0.0290039 -0.0257812 -0.0805664 -0.125684 -0.093457 -0.0418945 0 0.0547852 0.0902344 0.0612305 0.0225586 -0.0257812 -0.0805664 -0.103125 -0.0805664 -0.0515625 0.0225586 0.0773437 0.0773437 0.0612305 0.0225586 -0.0257812 -0.0902344 -0.116016 0 -0.0483398 0.0193359 0.0547852 0.0902344 0.0483398 0.0193359 -0.0418945 -0.0805664 -0.116016 -0.093457 -0.0515625 0.00966797 0.0483398 0.0805664 0.0773437 0.0225586 -0.0418945 -0.093457 -0.103125 -0.093457 -0.0483398 0 0.0451172 0.0773437 0.0612305 0.0290039 -0.0257812 -0.0805664 -0.125684 -0.093457 -0.0418945 0 0.0547852 0.0902344 0.0612305 0.0225586 -0.0257812 -0.0805664 -0.103125 -0.0805664 -0.0515625 0.0225586 0.0773437 0.0773437 0.0612305 0.0225586 -0.0257812 -0.0902344 -0.116016 -0.0837891 -0.0418945 0.00966797 0.0483398 0.0773437 0.0451172 0.00966797 -0.0322266 -0.0805664 -0.116016 -0.0837891 -0.0515625 0.00966797 0.0483398 0.0773437 0.0483398 0.00966797 -0.0418945 -0.0644531 -0.103125 -0.0837891 -0.0483398 0.00322266 0.0483398 0.0773437 0.0547852 0.0225586 -0.0257812 -0.0805664 -0.10957 -0.0805664 -0.0515625 0.00966797 0.0483398 0.0773437 0.0612305 0.0225586 -0.0418945 -0.0805664 -0.103125 -0.093457 -0.0418945 -0.00644531 0.0483398 0.0773437 0.0547852 0.0290039 -0.0257812 -0.0805664 -0.103125 0 -0.0418945 0.00966797 0.0483398 0.0773437 0.0451172 0.00966797 -0.0322266 -0.0805664 -0.116016 -0.0837891 -0.0515625 0.00966797 0.0483398 0.0773437 0.0483398 0.00966797 -0.0418945 -0.0644531 -0.103125 -0.0837891 -0.0483398 0.00322266 0.0483398 0.0773437 0.0547852 0.0225586 -0.0257812 -0.0805664 -0.10957 -0.0805664 -0.0515625 0.00966797 0.0483398 0.0773437 0.0612305 0.0225586 -0.0418945 -0.0805664 -0.103125 -0.093457 -0.0418945 -0.00644531 0.0483398 0.0773437 0.0547852 0.0290039 -0.0257812 -0.0805664 -0.103125 -0.093457 -0.0515625 0.00966797 0.0483398 0.0805664 0.0612305 0.0225586 -0.0257812 -0.093457 -0.116016 -0.0805664 -0.0418945 0.00966797 0.0483398 0.0483398 0.0547852 0.00966797 -0.0322266 -0.0805664 -0.103125 -0.103125 -0.0580078 0 0.0612305 0.0773437 0.0483398 0.0225586 -0.0257812 -0.0580078 -0.093457 -0.103125 -0.0580078 -0.00644531 0.0483398 0.0612305 0.0483398 0.0193359 -0.0386719 -0.0805664 -0.0902344 -0.0644531 -0.0515625 -0.0257812 0.0225586 0.0612305 0.0451172 0.0225586 -0.0128906 -0.0805664 -0.103125 0 -0.0515625 0.00966797 0.0483398 0.0805664 0.0612305 0.0225586 -0.0257812 -0.093457 -0.116016 -0.0805664 -0.0418945 0.00966797 0.0483398 0.0483398 0.0547852 0.00966797 -0.0322266 -0.0805664 -0.103125 -0.103125 -0.0580078 0 0.0612305 0.0773437 0.0483398 0.0225586 -0.0257812 -0.0580078 -0.093457 -0.103125 -0.0580078 -0.00644531 0.0483398 0.0612305 0.0483398 0.0193359 -0.0386719 -0.0805664 -0.0902344 -0.0644531 -0.0515625 -0.0257812 0.0225586 0.0612305 0.0451172 0.0225586 -0.0128906 -0.0805664 -0.103125 -0.0805664 -0.0483398 0 0.0451172 0.0547852 0.0451172 0.00966797 -0.0257812 -0.0515625 -0.0837891 -0.0644531 -0.0515625 0 0.0386719 0.0612305 0.0483398 0.0386719 -0.0225586 -0.0741211 -0.0999023 -0.0805664 -0.0418945 0.00966797 0.0483398 0.0902344 0.0483398 0.0225586 -0.0418945 -0.093457 -0.0999023 -0.0805664 -0.0580078 0 0.0386719 0.0773437 0.0483398 0.00322266 -0.0257812 -0.0741211 -0.0805664 -0.0805664 -0.0418945 -0.00322266 0.0483398 0.0612305 0.0483398 0.0225586 -0.0128906 -0.0741211 -0.103125 0 -0.0483398 0 0.0451172 0.0547852 0.0451172 0.00966797 -0.0257812 -0.0515625 -0.0837891 -0.0644531 -0.0515625 0 0.0386719 0.0612305 0.0483398 0.0386719 -0.0225586 -0.0741211 -0.0999023 -0.0805664 -0.0418945 0.00966797 0.0483398 0.0902344 0.0483398 0.0225586 -0.0418945 -0.093457 -0.0999023 -0.0805664 -0.0580078 0 0.0386719 0.0773437 0.0483398 0.00322266 -0.0257812 -0.0741211 -0.0805664 -0.0805664 -0.0418945 -0.00322266 0.0483398 0.0612305 0.0483398 0.0225586 -0.0128906 -0.0741211 -0.103125 -0.0805664 -0.0483398 0 0.0483398 0.0773437 0.0483398 0.0225586 -0.0225586 -0.0805664 -0.0837891 -0.0999023 -0.0483398 -0.00322266 0.0451172 0.0612305 0.0451172 0.00966797 -0.0257812 -0.0805664 -0.093457 -0.0741211 -0.0418945 -0.0128906 0.0386719 0.0547852 0.0386719 0.0225586 -0.0257812 -0.0644531 -0.093457 -0.0644531 -0.0515625 -0.0128906 0.0290039 0.0773437 0.0483398 0 -0.0128906 -0.0741211 -0.093457 -0.0805664 -0.0515625 0.00322266 0.0386719 0.0386719 0.0451172 0.0225586 -0.0257812 -0.0644531 -0.0805664 0 -0.0483398 0 0.0483398 0.0773437 0.0483398 0.0225586 -0.0225586 -0.0805664 -0.0837891 -0.0999023 -0.0483398 -0.00322266 0.0451172 0.0612305 0.0451172 0.00966797 -0.0257812 -0.0805664 -0.093457 -0.0741211 -0.0418945 -0.0128906 0.0386719 0.0547852 0.0386719 0.0225586 -0.0257812 -0.0644531 -0.093457 -0.0644531 -0.0515625 -0.0128906 0.0290039 0.0773437 0.0483398 0 -0.0128906 -0.0741211 -0.093457 -0.0805664 -0.0515625 0.00322266 0.0386719 0.0386719 0.0451172 0.0225586 -0.0257812 -0.0644531 -0.0805664 -0.0805664 -0.0515625 -0.00322266 0.0386719 0.0547852 0.0612305 0.0193359 -0.0225586 -0.0644531 -0.093457 -0.0741211 -0.0515625 -0.0128906 0.0386719 0.0483398 0.0483398 0.0225586 -0.0257812 -0.0515625 -0.0837891 -0.0805664 -0.0644531 -0.0128906 0.0386719 0.0547852 0.0386719 0.0225586 -0.00644531 -0.0580078 -0.093457 -0.0837891 -0.0483398 0.00966797 0.0386719 0.0547852 0.0483398 0.0225586 -0.0257812 -0.0644531 -0.0837891 -0.0741211 -0.0418945 0 0.0386719 0.0451172 0.0386719 0.0225586 -0.0322266 -0.0741211 -0.0999023 0 -0.0515625 -0.00322266 0.0386719 0.0547852 0.0612305 0.0193359 -0.0225586 -0.0644531 -0.093457 -0.0741211 -0.0515625 -0.0128906 0.0386719 0.0483398 0.0483398 0.0225586 -0.0257812 -0.0515625 -0.0837891 -0.0805664 -0.0644531 -0.0128906 0.0386719 0.0547852 0.0386719 0.0225586 -0.00644531 -0.0580078 -0.093457 -0.0837891 -0.0483398 0.00966797 0.0386719 0.0547852 0.0483398 0.0225586 -0.0257812 -0.0644531 -0.0837891 -0.0741211 -0.0418945 0 0.0386719 0.0451172 0.0386719 0.0225586 -0.0322266 -0.0741211 -0.0999023 -0.0837891 -0.0515625 -0.00322266 0.0386719 0.0773437 0.0451172 0.0290039 -0.0257812 -0.0805664 -0.0999023 -0.0644531 -0.0483398 0 0.0290039 0.0483398 0.0451172 0.0225586 -0.0257812 -0.0644531 -0.0805664 -0.0805664 -0.0515625 -0.00322266 0.0386719 0.0483398 0.0483398 0.0290039 -0.0128906 -0.0580078 -0.103125 -0.0805664 -0.0418945 -0.0128906 0.0386719 0.0483398 0.0483398 0.0225586 -0.0257812 -0.0644531 -0.0837891 -0.0805664 -0.0386719 0 0.0225586 0.0386719 0.0483398 0.0225586 -0.0322266 -0.0644531 -0.0837891 0 -0.0515625 -0.00322266 0.0386719 0.0773437 0.0451172 0.0290039 -0.0257812 -0.0805664 -0.0999023 -0.0644531 -0.0483398 0 0.0290039 0.0483398 0.0451172 0.0225586 -0.0257812 -0.0644531 -0.0805664 -0.0805664 -0.0515625 -0.00322266 0.0386719 0.0483398 0.0483398 0.0290039 -0.0128906 -0.0580078 -0.103125 -0.0805664 -0.0418945 -0.0128906 0.0386719 0.0483398 0.0483398 0.0225586 -0.0257812 -0.0644531 -0.0837891 -0.0805664 -0.0386719 0 0.0225586 0.0386719 0.0483398 0.0225586 -0.0322266 -0.0644531 -0.0837891 -0.0805664 -0.0515625 0.0225586 0.0483398 0.0483398 0.0225586 0.0225586 -0.0225586 -0.0644531 -0.0805664 -0.0644531 -0.0515625 0 0.0483398 0.0483398 0.0225586 0.0225586 -0.0257812 -0.0644531 -0.0805664 -0.0644531 -0.0418945 -0.00644531 0.0290039 0.0483398 0.0483398 0.0225586 -0.0418945 -0.0515625 -0.0837891 -0.0805664 -0.0515625 -0.00322266 0.0225586 0.0483398 0.0451172 0.0225586 -0.0257812 -0.0515625 -0.093457 -0.0805664 -0.0515625 -0.00644531 0.0225586 0.0451172 0.0547852 0.0193359 -0.0225586 -0.0580078 -0.0805664 0 -0.0515625 0.0225586 0.0483398 0.0483398 0.0225586 0.0225586 -0.0225586 -0.0644531 -0.0805664 -0.0644531 -0.0515625 0 0.0483398 0.0483398 0.0225586 0.0225586 -0.0257812 -0.0644531 -0.0805664 -0.0644531 -0.0418945 -0.00644531 0.0290039 0.0483398 0.0483398 0.0225586 -0.0418945 -0.0515625 -0.0837891 -0.0805664 -0.0515625 -0.00322266 0.0225586 0.0483398 0.0451172 0.0225586 -0.0257812 -0.0515625 -0.093457 -0.0805664 -0.0515625 -0.00644531 0.0225586 0.0451172 0.0547852 0.0193359 -0.0225586 -0.0580078 -0.0805664 -0.0644531 -0.0418945 -0.00322266 0.0386719 0.0483398 0.0483398 0.0225586 -0.0257812 -0.0805664 -0.093457 -0.0805664 -0.0418945 -0.00644531 0.0290039 0.0483398 0.0451172 0.0225586 -0.0128906 -0.0741211 -0.093457 -0.0644531 -0.0515625 0 0.0451172 0.0547852 0.0386719 0.0225586 -0.0257812 -0.0515625 -0.0805664 -0.0837891 -0.0515625 -0.00644531 0.0193359 0.0483398 0.0612305 0.0225586 -0.0515625 -0.0805664 -0.0805664 -0.0741211 -0.0322266 -0.00644531 0.0193359 0.0483398 0.0451172 0.0225586 -0.0128906 -0.0515625 -0.0805664 0 -0.0418945 -0.00322266 0.0386719 0.0483398 0.0483398 0.0225586 -0.0257812 -0.0805664 -0.093457 -0.0805664 -0.0418945 -0.00644531 0.0290039 0.0483398 0.0451172 0.0225586 -0.0128906 -0.0741211 -0.093457 -0.0644531 -0.0515625 0 0.0451172 0.0547852 0.0386719 0.0225586 -0.0257812 -0.0515625 -0.0805664 -0.0837891 -0.0515625 -0.00644531 0.0193359 0.0483398 0.0612305 0.0225586 -0.0515625 -0.0805664 -0.0805664 -0.0741211 -0.0322266 -0.00644531 0.0193359 0.0483398 0.0451172 0.0225586 -0.0128906 -0.0515625 -0.0805664 -0.0741211 -0.0515625 -0.00644531 0.0225586 0.0483398 0.0451172 0.0225586 -0.0322266 -0.0580078 -0.0805664 -0.0644531 -0.0418945 -0.00322266 0.0225586 0.0483398 0.0483398 0.0290039 -0.0128906 -0.0805664 -0.0837891 -0.0805664 -0.0418945 -0.0128906 0.0225586 0.0483398 0.0483398 0.0225586 -0.0128906 -0.0805664 -0.093457 -0.0805664 -0.0418945 -0.00322266 0.0290039 0.0483398 0.0225586 0.0225586 -0.0257812 -0.0644531 -0.0999023 -0.0805664 -0.0257812 0.00966797 0.0386719 0.0612305 0.0483398 -0.00322266 -0.0257812 -0.0515625 -0.093457 0 -0.0515625 -0.00644531 0.0225586 0.0483398 0.0451172 0.0225586 -0.0322266 -0.0580078 -0.0805664 -0.0644531 -0.0418945 -0.00322266 0.0225586 0.0483398 0.0483398 0.0290039 -0.0128906 -0.0805664 -0.0837891 -0.0805664 -0.0418945 -0.0128906 0.0225586 0.0483398 0.0483398 0.0225586 -0.0128906 -0.0805664 -0.093457 -0.0805664 -0.0418945 -0.00322266 0.0290039 0.0483398 0.0225586 0.0225586 -0.0257812 -0.0644531 -0.0999023 -0.0805664 -0.0257812 0.00966797 0.0386719 0.0612305 0.0483398 -0.00322266 -0.0257812 -0.0515625 -0.093457 -0.0741211 -0.0418945 -0.0128906 0.0225586 0.0483398 0.0451172 0.00966797 -0.0128906 -0.0418945 -0.0741211 -0.0805664 -0.0483398 -0.0128906 0.0225586 0.0483398 0.0612305 0.0386719 -0.0257812 -0.0644531 -0.0837891 -0.0805664 -0.0418945 -0.0128906 0.0290039 0.0483398 0.0386719 0.0225586 -0.0128906 -0.0580078 -0.0805664 -0.0741211 -0.0515625 -0.00644531 0.0225586 0.0483398 0.0225586 0.00966797 -0.0257812 -0.0644531 -0.093457 -0.0805664 -0.0257812 -0.00644531 0.0225586 0.0386719 0.0386719 0.0225586 -0.0128906 -0.0515625 -0.093457 0 