-0.0257812 -0.0418945 -0.0257812 -0.0257812 -0.0257812 0.00322266 0.00966797 0.00966797 0.00966797 -0.00322266 -0.0225586 -0.0257812 -0.0257812 -0.0418945 -0.0225586 -0.00322266 0.00322266 0.00966797 0.00966797 0 -0.0257812 -0.0418945 -0.0483398 -0.0418945 -0.0257812 0 0.0225586 0.00966797 0.00322266 -0.00322266 -0.0257812 -0.0418945 -0.0483398 -0.0418945 -0.0322266 -0.0128906 -0.00322266 0.00322266 0.00966797 -0.00644531 -0.0257812 -0.0418945 -0.0515625 -0.0257812 -0.0225586 -0.00322266 0.0193359 0.0225586 0.0193359 -0.00322266 -0.0257812 -0.0515625 -0.0418945 -0.0257812 -0.0257812 0 -0.00322266 0.00966797 0.00322266 -0.0128906 -0.0257812 -0.0418945 -0.0322266 -0.0418945 -0.0257812 -0.0257812 0.0193359 0.0225586 0.00966797 -0.00644531 -0.0257812 -0.0257812 -0.0418945 -0.0386719 -0.00644531 0 0 0.0193359 0.00966797 -0.00322266 -0.0257812 -0.0418945 -0.0515625 -0.0418945 -0.0257812 -0.00644531 0.00966797 0.00966797 0.00966797 -0.00322266 -0.0322266 -0.0515625 -0.0547852 -0.0418945 -0.0257812 -0.00322266 0 0.00966797 0.00966797 0 -0.0257812 -0.0515625 -0.0418945 -0.0257812 -0.0257812 0 -0.00322266 0.00966797 0.00322266 -0.0128906 -0.0257812 -0.0418945 -0.0322266 -0.0418945 -0.0257812 -0.0257812 0.0193359 0.0225586 0.00966797 -0.00644531 -0.0257812 -0.0257812 -0.0418945 -0.0386719 -0.00644531 0 0 0.0193359 0.00966797 -0.00322266 -0.0257812 -0.0418945 -0.0515625 -0.0418945 -0.0257812 -0.00644531 0.00966797 0.00966797 0.00966797 -0.00322266 -0.0322266 -0.0515625 -0.0547852 -0.0418945 -0.0257812 -0.00322266 0 0.00966797 0.00966797 -0.00322266 -0.0257812 -0.0418945 -0.0418945 -0.0418945 -0.0225586 -0.0128906 0 0.0193359 0 -0.0128906 -0.0225586 -0.0257812 -0.0515625 -0.0418945 -0.0128906 -0.00644531 0 0 0.00966797 0 -0.0257812 -0.0418945 -0.0418945 -0.0418945 -0.0257812 -0.0128906 0 0.00966797 0.00966797 0 -0.0257812 -0.0257812 -0.0418945 -0.0257812 -0.0257812 -0.00322266 -0.0225586 -0.00322266 0.00966797 0 -0.0225586 -0.0418945 -0.0515625 -0.0257812 -0.0128906 -0.00322266 0 0.00966797 0.0193359 0 -0.0257812 -0.0418945 -0.0418945 -0.0418945 -0.0225586 -0.0128906 0 0.0193359 0 -0.0128906 -0.0225586 -0.0257812 -0.0515625 -0.0418945 -0.0128906 -0.00644531 0 0 0.00966797 0 -0.0257812 -0.0418945 -0.0418945 -0.0418945 -0.0257812 -0.0128906 0 0.00966797 0.00966797 0 -0.0257812 -0.0257812 -0.0418945 -0.0257812 -0.0257812 -0.00322266 -0.0225586 -0.00322266 0.00966797 0 -0.0225586 -0.0418945 -0.0515625 -0.0257812 -0.0128906 -0.00322266 0 0.00966797 0.0193359 -0.00322266 -0.0257812 -0.0483398 -0.0515625 -0.0322266 -0.0225586 -0.0128906 0 0.0193359 0.00966797 -0.00322266 -0.0257812 -0.0257812 -0.0257812 -0.0257812 -0.0225586 -0.00644531 0.00322266 0.0225586 0 -0.00644531 -0.0128906 -0.0483398 -0.0418945 -0.0257812 -0.0128906 -0.00644531 0.00966797 0.00966797 0.0193359 0 -0.0257812 -0.0483398 -0.0483398 -0.0483398 -0.0128906 -0.00644531 0.00322266 0.0193359 -0.00322266 -0.00322266 -0.0225586 -0.0257812 -0.0515625 -0.0418945 -0.0257812 -0.00644531 0 0.00322266 0 0 -0.0257812 -0.0483398 -0.0515625 -0.0322266 -0.0225586 -0.0128906 0 0.0193359 0.00966797 -0.00322266 -0.0257812 -0.0257812 -0.0257812 -0.0257812 -0.0225586 -0.00644531 0.00322266 0.0225586 0 -0.00644531 -0.0128906 -0.0483398 -0.0418945 -0.0257812 -0.0128906 -0.00644531 0.00966797 0.00966797 0.0193359 0 -0.0257812 -0.0483398 -0.0483398 -0.0483398 -0.0128906 -0.00644531 0.00322266 0.0193359 -0.00322266 -0.00322266 -0.0225586 -0.0257812 -0.0515625 -0.0418945 -0.0257812 -0.00644531 0 0.00322266 0 -0.00322266 -0.0225586 -0.0257812 -0.0418945 -0.0418945 -0.0257812 -0.00322266 0 0.00966797 0.00966797 0 -0.0128906 -0.0257812 -0.0418945 -0.0418945 -0.0257812 -0.00644531 0.00966797 0.00966797 0 -0.0128906 -0.0225586 -0.0257812 -0.0322266 -0.0322266 -0.0257812 -0.00644531 0 0.00966797 0.00966797 0 -0.0225586 -0.0418945 -0.0418945 -0.0418945 -0.0322266 -0.0225586 0 0.00966797 0.00966797 0 -0.0128906 -0.0257812 -0.0483398 -0.0483398 -0.0257812 -0.0128906 0.00322266 0.00966797 0.00966797 0 -0.0225586 -0.0257812 -0.0418945 -0.0418945 -0.0257812 -0.00322266 0 0.00966797 0.00966797 0 -0.0128906 -0.0257812 -0.0418945 -0.0418945 -0.0257812 -0.00644531 0.00966797 0.00966797 0 -0.0128906 -0.0225586 -0.0257812 -0.0322266 -0.0322266 -0.0257812 -0.00644531 0 0.00966797 0.00966797 0 -0.0225586 -0.0418945 -0.0418945 -0.0418945 -0.0322266 -0.0225586 0 0.00966797 0.00966797 0 -0.0128906 -0.0257812 -0.0483398 -0.0483398 -0.0257812 -0.0128906 0.00322266 0.00966797 0.00966797 -0.00322266 -0.0257812 -0.0322266 -0.0418945 -0.0257812 -0.0257812 -0.00644531 0.00322266 0.0225586 0.00966797 0 -0.0128906 -0.0257812 -0.0418945 -0.0322266 -0.0322266 -0.0225586 -0.00322266 0.00966797 0.0193359 -0.0128906 -0.0257812 -0.0257812 -0.0418945 -0.0418945 -0.0257812 -0.0128906 0.00322266 0.0225586 0.00322266 -0.00644531 -0.0257812 -0.0418945 -0.0515625 -0.0418945 -0.0225586 -0.00644531 0.00322266 0.00966797 0 -0.00644531 -0.0128906 -0.0257812 -0.0483398 -0.0418945 -0.0483398 -0.00644531 0.00322266 0.00966797 0.00322266 0 -0.0257812 -0.0322266 -0.0418945 -0.0257812 -0.0257812 -0.00644531 0.00322266 0.0225586 0.00966797 0 -0.0128906 -0.0257812 -0.0418945 -0.0322266 -0.0322266 -0.0225586 -0.00322266 0.00966797 0.0193359 -0.0128906 -0.0257812 -0.0257812 -0.0418945 -0.0418945 -0.0257812 -0.0128906 0.00322266 0.0225586 0.00322266 -0.00644531 -0.0257812 -0.0418945 -0.0515625 -0.0418945 -0.0225586 -0.00644531 0.00322266 0.00966797 0 -0.00644531 -0.0128906 -0.0257812 -0.0483398 -0.0418945 -0.0483398 -0.00644531 0.00322266 0.00966797 0.00322266 0 -0.0128906 -0.0418945 -0.0418945 -0.0418945 -0.0257812 -0.00644531 -0.00322266 0.00966797 0.00322266 -0.00322266 -0.0225586 -0.0257812 -0.0257812 -0.0257812 -0.0257812 -0.00644531 0.00322266 0.00966797 0.00966797 -0.0128906 -0.0225586 -0.0257812 -0.0418945 -0.0257812 -0.0257812 -0.00644531 0.00966797 0.00966797 0 -0.00644531 -0.0128906 -0.0418945 -0.0515625 -0.0418945 -0.0257812 -0.00322266 0 0.0193359 0.00966797 -0.00644531 -0.0257812 -0.0322266 -0.0418945 -0.0257812 -0.0128906 -0.00322266 0.00966797 0.00966797 0.0193359 0 -0.0128906 -0.0418945 -0.0418945 -0.0418945 -0.0257812 -0.00644531 -0.00322266 0.00966797 0.00322266 -0.00322266 -0.0225586 -0.0257812 -0.0257812 -0.0257812 -0.0257812 -0.00644531 0.00322266 0.00966797 0.00966797 -0.0128906 -0.0225586 -0.0257812 -0.0418945 -0.0257812 -0.0257812 -0.00644531 0.00966797 0.00966797 0 -0.00644531 -0.0128906 -0.0418945 -0.0515625 -0.0418945 -0.0257812 -0.00322266 0 0.0193359 0.00966797 -0.00644531 -0.0257812 -0.0322266 -0.0418945 -0.0257812 -0.0128906 -0.00322266 0.00966797 0.00966797 0.0193359 0 -0.0257812 -0.0483398 -0.0483398 -0.0322266 -0.0257812 0 0.00322266 0.00322266 -0.0128906 -0.0128906 -0.0322266 -0.0418945 -0.0322266 -0.0257812 -0.0128906 0.00322266 0.00322266 0 0.00322266 -0.00644531 -0.0257812 -0.0418945 -0.0515625 -0.0257812 -0.0225586 -0.00322266 0.00966797 0.00966797 0 -0.00644531 -0.0322266 -0.0418945 -0.0257812 -0.0257812 -0.0128906 -0.00322266 0 0.00322266 0 -0.00644531 -0.0257812 -0.0418945 -0.0483398 -0.0257812 -0.0128906 -0.00322266 0 0.00966797 0 0 -0.0257812 -0.0483398 -0.0483398 -0.0322266 -0.0257812 0 0.00322266 0.00322266 -0.0128906 -0.0128906 -0.0322266 -0.0418945 -0.0322266 -0.0257812 -0.0128906 0.00322266 0.00322266 0 0.00322266 -0.00644531 -0.0257812 -0.0418945 -0.0515625 -0.0257812 -0.0225586 -0.00322266 0.00966797 0.00966797 0 -0.00644531 -0.0322266 -0.0418945 -0.0257812 -0.0257812 -0.0128906 -0.00322266 0 0.00322266 0 -0.00644531 -0.0257812 -0.0418945 -0.0483398 -0.0257812 -0.0128906 -0.00322266 0 0.00966797 0 -0.0128906 -0.0225586 -0.0322266 -0.0386719 -0.0483398 -0.0225586 -0.00322266 0.00966797 0 0.00322266 -0.0225586 -0.0257812 -0.0386719 -0.0322266 -0.0128906 -0.0225586 -0.0257812 0.00966797 0.00966797 -0.00322266 -0.00322266 -0.0257812 -0.0418945 -0.0322266 -0.0418945 -0.0225586 0 0.00966797 0.0193359 0.0193359 -0.00322266 -0.0225586 -0.0257812 -0.0386719 -0.0257812 -0.0225586 0 0.00966797 0.0193359 0 -0.0257812 -0.0257812 -0.0418945 -0.0418945 -0.0418945 -0.0128906 0 0.00322266 0.00966797 0.00322266 0 -0.0225586 -0.0322266 -0.0386719 -0.0483398 -0.0225586 -0.00322266 0.00966797 0 0.00322266 -0.0225586 -0.0257812 -0.0386719 -0.0322266 -0.0128906 -0.0225586 -0.0257812 0.00966797 0.00966797 -0.00322266 -0.00322266 -0.0257812 -0.0418945 -0.0322266 -0.0418945 -0.0225586 0 0.00966797 0.0193359 0.0193359 -0.00322266 -0.0225586 -0.0257812 -0.0386719 -0.0257812 -0.0225586 0 0.00966797 0.0193359 0 -0.0257812 -0.0257812 -0.0418945 -0.0418945 -0.0418945 -0.0128906 0 0.00322266 0.00966797 0.00322266 -0.0128906 -0.0257812 -0.0418945 -0.0418945 -0.0257812 -0.0225586 -0.0128906 0 0.00966797 0.00966797 -0.0128906 -0.0322266 -0.0483398 -0.0483398 -0.0257812 -0.0128906 0.00322266 0.0193359 0.00322266 0 -0.0225586 -0.0322266 -0.0515625 -0.0483398 -0.0257812 -0.0128906 -0.00322266 0.00966797 0 0 -0.00322266 -0.0257812 -0.0483398 -0.0580078 -0.0257812 -0.0128906 -0.00644531 0.00322266 0.00966797 -0.00322266 -0.0225586 -0.0257812 -0.0418945 -0.0483398 -0.0257812 -0.0257812 0 0.0225586 0.00966797 -0.00322266 0 -0.0257812 -0.0418945 -0.0418945 -0.0257812 -0.0225586 -0.0128906 0 0.00966797 0.00966797 -0.0128906 -0.0322266 -0.0483398 -0.0483398 -0.0257812 -0.0128906 0.00322266 0.0193359 0.00322266 0 -0.0225586 -0.0322266 -0.0515625 -0.0483398 -0.0257812 -0.0128906 -0.00322266 0.00966797 0 0 -0.00322266 -0.0257812 -0.0483398 -0.0580078 -0.0257812 -0.0128906 -0.00644531 0.00322266 0.00966797 -0.00322266 -0.0225586 -0.0257812 -0.0418945 -0.0483398 -0.0257812 -0.0257812 0 0.0225586 0.00966797 -0.00322266 -0.00322266 -0.0257812 -0.0257812 -0.0418945 -0.0386719 -0.0128906 0 0.00966797 0.00322266 -0.00322266 -0.00644531 -0.0257812 -0.0418945 -0.0322266 -0.0257812 -0.0322266 0 0.00966797 0.00966797 0 -0.00644531 -0.0257812 -0.0322266 -0.0483398 -0.0257812 -0.0257812 0 0.00966797 0.00966797 0.00322266 -0.0128906 -0.0257812 -0.0257812 -0.0418945 -0.0257812 -0.0128906 0.00322266 0.00966797 0.00966797 0.00322266 -0.0257812 -0.0257812 -0.0257812 -0.0483398 -0.0257812 -0.0128906 0 0.0225586 0.0225586 0 0 -0.0257812 -0.0257812 -0.0418945 -0.0386719 -0.0128906 0 0.00966797 0.00322266 -0.00322266 -0.00644531 -0.0257812 -0.0418945 -0.0322266 -0.0257812 -0.0322266 0 0.00966797 0.00966797 0 -0.00644531 -0.0257812 -0.0322266 -0.0483398 -0.0257812 -0.0257812 0 0.00966797 0.00966797 0.00322266 -0.0128906 -0.0257812 -0.0257812 -0.0418945 -0.0257812 -0.0128906 0.00322266 0.00966797 0.00966797 0.00322266 -0.0257812 -0.0257812 -0.0257812 -0.0483398 -0.0257812 -0.0128906 0 0.0225586 0.0225586 0 -0.0225586 -0.0257812 -0.0322266 -0.0418945 -0.0257812 -0.00322266 0.00322266 0.00322266 -0.00322266 -0.00322266 -0.0257812 -0.0257812 -0.0322266 -0.0483398 -0.0257812 -0.0128906 0.00966797 0.00966797 0.00966797 0 -0.0128906 -0.0386719 -0.0483398 -0.0418945 -0.0257812 -0.0257812 0.0193359 0.0225586 0.00966797 0.0193359 -0.00644531 -0.0418945 -0.0257812 -0.0386719 -0.0257812 -0.0225586 0 0.00966797 0.0193359 -0.00644531 -0.0225586 -0.0257812 -0.0418945 -0.0418945 -0.0257812 -0.0128906 -0.00322266 0 0.00322266 0 0 -0.0257812 -0.0322266 -0.0418945 -0.0257812 -0.00322266 0.00322266 0.00322266 -0.00322266 -0.00322266 -0.0257812 -0.0257812 -0.0322266 -0.0483398 -0.0257812 -0.0128906 0.00966797 0.00966797 0.00966797 0 -0.0128906 -0.0386719 -0.0483398 -0.0418945 -0.0257812 -0.0257812 0.0193359 0.0225586 0.00966797 0.0193359 -0.00644531 -0.0418945 -0.0257812 -0.0386719 -0.0257812 -0.0225586 0 0.00966797 0.0193359 -0.00644531 -0.0225586 -0.0257812 -0.0418945 -0.0418945 -0.0257812 -0.0128906 -0.00322266 0 0.00322266 0 -0.0225586 -0.0322266 -0.0418945 -0.0418945 -0.0322266 -0.00644531 0.00322266 0.00966797 0.0225586 0 -0.0128906 -0.0257812 -0.0418945 -0.0418945 -0.0257812 -0.0128906 0.00966797 0.00966797 0.0193359 0.00322266 -0.00644531 -0.0483398 -0.0515625 -0.0483398 -0.0418945 -0.0128906 0 0.00966797 0.00966797 0 -0.0128906 -0.0257812 -0.0418945 -0.0418945 -0.0257812 -0.00644531 0 0.00322266 0.00966797 0.00322266 -0.0225586 -0.0257812 -0.0418945 -0.0483398 -0.0418945 -0.00644531 0.00322266 -0.0128906 0.00966797 0 0 -0.0322266 -0.0418945 -0.0418945 -0.0322266 -0.00644531 0.00322266 0.00966797 0.0225586 0 -0.0128906 -0.0257812 -0.0418945 -0.0418945 -0.0257812 -0.0128906 0.00966797 0.00966797 0.0193359 0.00322266 -0.00644531 -0.0483398 -0.0515625 -0.0483398 -0.0418945 -0.0128906 0 0.00966797 0.00966797 0 -0.0128906 -0.0257812 -0.0418945 -0.0418945 -0.0257812 -0.00644531 0 0.00322266 0.00966797 0.00322266 -0.0225586 -0.0257812 -0.0418945 -0.0483398 -0.0418945 -0.00644531 0.00322266 -0.0128906 0.00966797 0 -0.00322266 -0.0257812 -0.0257812 -0.0418945 -0.0257812 -0.00644531 0 -0.00322266 0 0.0225586 0.0225586 0.0225586 0.0999023 0.0612305 0.0225586 -0.0805664 -0.0644531 -0.0644531 -0.103125 -0.0257812 0.225586 0.122461 0.0225586 0.0225586 0.00322266 -0.0515625 0.0483398 0.0999023 -0.00322266 -0.270703 -0.286816 -0.167578 -0.306152 -0.918457 -0.644531 -0.621973 -0.335156 0.370605 0.924902 1.33418 0.554297 -0.924902 -0.650977 -1.07959 -0.135352 0.309375 0.50918 0.783105 0.696094 0.696094 0 -0.0257812 -0.0257812 -0.0418945 -0.0257812 -0.00644531 0 -0.00322266 0 0.0225586 0.0225586 0.0225586 0.0999023 0.0612305 0.0225586 -0.0805664 -0.0644531 -0.0644531 -0.103125 -0.0257812 0.225586 0.122461 0.0225586 0.0225586 0.00322266 -0.0515625 0.0483398 0.0999023 -0.00322266 -0.270703 -0.286816 -0.167578 -0.306152 -0.918457 -0.644531 -0.621973 -0.335156 0.370605 0.924902 1.33418 0.554297 -0.924902 -0.650977 -1.07959 -0.135352 0.309375 0.50918 0.783105 0.696094 0.696094 0.26748 0.180469 0.0805664 0.25459 0.154687 0.154687 0.0966797 -0.14502 -0.299707 -0.286816 -0.438281 -0.644531 -0.464062 -0.580078 -0.125684 0.0902344 0.312598 0.370605 -0.248145 -0.815332 -0.725098 0.125684 0.489844 0.312598 0.544629 0.61875 0.46084 0.451172 0.215918 0.0290039 -0.0515625 -0.270703 -0.103125 -0.0257812 0.0290039 -0.0257812 0.0773437 -0.00644531 -0.280371 -0.699316 -0.470508 -0.161133 0.164355 0.203027 0.399609 0.235254 0.296484 0.25459 0.112793 -0.15791 0 0.180469 0.0805664 0.25459 0.154687 0.154687 0.0966797 -0.14502 -0.299707 -0.286816 -0.438281 -0.644531 -0.464062 -0.580078 -0.125684 0.0902344 0.312598 0.370605 -0.248145 -0.815332 -0.725098 0.125684 0.489844 0.312598 0.544629 0.61875 0.46084 0.451172 0.215918 0.0290039 -0.0515625 -0.270703 -0.103125 -0.0257812 0.0290039 -0.0257812 0.0773437 -0.00644531 -0.280371 -0.699316 -0.470508 -0.161133 0.164355 0.203027 0.399609 0.235254 0.296484 0.25459 0.112793 -0.15791 -0.0257812 -0.128906 -0.128906 0.0225586 -0.0128906 -0.0225586 -0.0515625 -0.0515625 -0.116016 -0.322266 -0.335156 -0.10957 -0.00322266 0.0225586 0.0290039 0.125684 0.0773437 0.0999023 -0.0741211 -0.335156 -0.264258 -0.232031 -0.264258 -0.0418945 0.228809 0.360937 0.203027 0.0902344 0.0773437 0.0193359 -0.0805664 -0.196582 -0.161133 -0.183691 -0.167578 -0.15791 -0.103125 -0.0999023 -0.0805664 -0.116016 -0.183691 -0.196582 -0.186914 -0.15791 -0.128906 -0.116016 -0.0644531 -0.0644531 -0.0644531 -0.0805664 0 -0.128906 -0.128906 0.0225586 -0.0128906 -0.0225586 -0.0515625 -0.0515625 -0.116016 -0.322266 -0.335156 -0.10957 -0.00322266 0.0225586 0.0290039 0.125684 0.0773437 0.0999023 -0.0741211 -0.335156 -0.264258 -0.232031 -0.264258 -0.0418945 0.228809 0.360937 0.203027 0.0902344 0.0773437 0.0193359 -0.0805664 -0.196582 -0.161133 -0.183691 -0.167578 -0.15791 -0.103125 -0.0999023 -0.0805664 -0.116016 -0.183691 -0.196582 -0.186914 -0.15791 -0.128906 -0.116016 -0.0644531 -0.0644531 -0.0644531 -0.0805664 -0.0805664 -0.0805664 -0.0741211 -0.0580078 -0.00644531 0.0290039 0.0612305 0.0999023 0.112793 0.0999023 0.0612305 0.0290039 0.00966797 0.0225586 0.0483398 0.0612305 0.0773437 0.0773437 0.0612305 0.0483398 0.0225586 -0.00644531 -0.0257812 -0.0257812 -0.0257812 0 0.0225586 0.00966797 0.0225586 0.0193359 -0.0257812 -0.0741211 -0.0805664 -0.0805664 -0.0515625 -0.0386719 -0.0128906 -0.00322266 -0.00644531 -0.0483398 -0.0483398 -0.0644531 -0.0644531 -0.0515625 -0.0418945 -0.00322266 0.00966797 0.0225586 0.0225586 0.00966797 0 -0.0805664 -0.0741211 -0.0580078 -0.00644531 0.0290039 0.0612305 0.0999023 0.112793 0.0999023 0.0612305 0.0290039 0.00966797 0.0225586 0.0483398 0.0612305 0.0773437 0.0773437 0.0612305 0.0483398 0.0225586 -0.00644531 -0.0257812 -0.0257812 -0.0257812 0 0.0225586 0.00966797 0.0225586 0.0193359 -0.0257812 -0.0741211 -0.0805664 -0.0805664 -0.0515625 -0.0386719 -0.0128906 -0.00322266 -0.00644531 -0.0483398 -0.0483398 -0.0644531 -0.0644531 -0.0515625 -0.0418945 -0.00322266 0.00966797 0.0225586 0.0225586 0.00966797 -0.0128906 -0.0418945 -0.0257812 -0.0128906 0.00966797 0.0451172 0.0773437 0.0773437 0.0483398 0.0386719 0 -0.0322266 -0.0644531 -0.0128906 -0.0128906 0.0225586 0.0483398 0.0290039 0.0225586 0.0225586 -0.0257812 -0.0483398 -0.0483398 -0.0418945 -0.00644531 0.00966797 0.0225586 0.0225586 0.0193359 -0.00644531 -0.0257812 -0.0483398 -0.0483398 -0.0418945 -0.00322266 0.0386719 0.0708984 0.0902344 0.0612305 0.0225586 -0.0225586 -0.0515625 -0.0805664 -0.0644531 -0.0418945 -0.0257812 -0.0128906 -0.00644531 -0.00322266 -0.0257812 0 -0.0418945 -0.0257812 -0.0128906 0.00966797 0.0451172 0.0773437 0.0773437 0.0483398 0.0386719 0 -0.0322266 -0.0644531 -0.0128906 -0.0128906 0.0225586 0.0483398 0.0290039 0.0225586 0.0225586 -0.0257812 -0.0483398 -0.0483398 -0.0418945 -0.00644531 0.00966797 0.0225586 0.0225586 0.0193359 -0.00644531 -0.0257812 -0.0483398 -0.0483398 -0.0418945 -0.00322266 0.0386719 0.0708984 0.0902344 0.0612305 0.0225586 -0.0225586 -0.0515625 -0.0805664 -0.0644531 -0.0418945 -0.0257812 -0.0128906 -0.00644531 -0.00322266 -0.0257812 -0.0418945 -0.0547852 -0.0644531 -0.0644531 -0.0515625 -0.0225586 0.00322266 0 0.00322266 -0.0128906 -0.0257812 -0.0418945 -0.0515625 -0.0805664 -0.0483398 -0.0257812 0 0.00322266 0.00966797 -0.0128906 -0.0322266 -0.0418945 -0.0515625 -0.0515625 -0.0483398 -0.0128906 -0.00644531 0.0193359 0.00966797 -0.00644531 -0.0257812 -0.0515625 -0.0515625 -0.0322266 -0.0225586 -0.00322266 0.0225586 0.0193359 0.0193359 -0.00322266 -0.0257812 -0.0257812 -0.0418945 -0.0418945 -0.0257812 -0.00322266 0.0225586 0.0225586 0.0225586 0 0 -0.0547852 -0.0644531 -0.0644531 -0.0515625 -0.0225586 0.00322266 0 0.00322266 -0.0128906 -0.0257812 -0.0418945 -0.0515625 -0.0805664 -0.0483398 -0.0257812 0 0.00322266 0.00966797 -0.0128906 -0.0322266 -0.0418945 -0.0515625 -0.0515625 -0.0483398 -0.0128906 -0.00644531 0.0193359 0.00966797 -0.00644531 -0.0257812 -0.0515625 -0.0515625 -0.0322266 -0.0225586 -0.00322266 0.0225586 0.0193359 0.0193359 -0.00322266 -0.0257812 -0.0257812 -0.0418945 -0.0418945 -0.0257812 -0.00322266 0.0225586 0.0225586 0.0225586 0 -0.0257812 -0.0515625 -0.0515625 -0.0515625 -0.0225586 0.00966797 0.0386719 0.0225586 0.0225586 -0.0128906 -0.0418945 -0.0644531 -0.0644531 -0.0580078 -0.0128906 0.00966797 0.0386719 0.0290039 0.0225586 -0.00644531 -0.0483398 -0.0644531 -0.0644531 -0.0580078 -0.0418945 0.0225586 0.0386719 0.0386719 0.0225586 -0.0128906 -0.0515625 -0.0805664 -0.0805664 -0.0515625 -0.0128906 0.0193359 0.0451172 0.0451172 0.0225586 -0.0128906 -0.0515625 -0.0805664 -0.0741211 -0.0644531 -0.0257812 0.00966797 0.0483398 0.0386719 0.0225586 -0.0128906 0 -0.0515625 -0.0515625 -0.0515625 -0.0225586 0.00966797 0.0386719 0.0225586 0.0225586 -0.0128906 -0.0418945 -0.0644531 -0.0644531 -0.0580078 -0.0128906 0.00966797 0.0386719 0.0290039 0.0225586 -0.00644531 -0.0483398 -0.0644531 -0.0644531 -0.0580078 -0.0418945 0.0225586 0.0386719 0.0386719 0.0225586 -0.0128906 -0.0515625 -0.0805664 -0.0805664 -0.0515625 -0.0128906 0.0193359 0.0451172 0.0451172 0.0225586 -0.0128906 -0.0515625 -0.0805664 -0.0741211 -0.0644531 -0.0257812 0.00966797 0.0483398 0.0386719 0.0225586 -0.0128906 -0.0515625 -0.0805664 -0.0805664 -0.0515625 -0.0225586 0.00966797 0.0451172 0.0451172 0.0225586 -0.0128906 -0.0418945 -0.0805664 -0.0644531 -0.0483398 -0.0225586 0.00322266 0.0225586 0.0386719 0.00966797 -0.0128906 -0.0386719 -0.0644531 -0.0515625 -0.0515625 -0.0418945 -0.0128906 0.00966797 0.00966797 0.0193359 0 -0.0257812 -0.0580078 -0.0644531 -0.0515625 -0.0257812 -0.00644531 0.00322266 0.0225586 0.0290039 0 -0.0257812 -0.0418945 -0.0418945 -0.0322266 -0.0225586 -0.00644531 0.0225586 0.0225586 0.0225586 -0.00644531 0 -0.0805664 -0.0805664 -0.0515625 -0.0225586 0.00966797 0.0451172 0.0451172 0.0225586 -0.0128906 -0.0418945 -0.0805664 -0.0644531 -0.0483398 -0.0225586 0.00322266 0.0225586 0.0386719 0.00966797 -0.0128906 -0.0386719 -0.0644531 -0.0515625 -0.0515625 -0.0418945 -0.0128906 0.00966797 0.00966797 0.0193359 0 -0.0257812 -0.0580078 -0.0644531 -0.0515625 -0.0257812 -0.00644531 0.00322266 0.0225586 0.0290039 0 -0.0257812 -0.0418945 -0.0418945 -0.0322266 -0.0225586 -0.00644531 0.0225586 0.0225586 0.0225586 -0.00644531 -0.0128906 -0.0483398 -0.0483398 -0.0483398 -0.0322266 -0.00322266 0.00966797 0.0193359 0.0225586 0.00966797 -0.0225586 -0.0418945 -0.0483398 -0.0515625 -0.0257812 -0.00322266 0.0193359 0.00966797 0.0225586 0 -0.0128906 -0.0257812 -0.0515625 -0.0483398 -0.0128906 0 0.0193359 0.0225586 0.0225586 0 -0.0128906 -0.0418945 -0.0483398 -0.0418945 -0.0257812 -0.00322266 0.0193359 0.0225586 0.0225586 -0.00644531 -0.0257812 -0.0257812 -0.0515625 -0.0418945 -0.0225586 0.00322266 0.0225586 0.0225586 0.0225586 -0.0128906 0 -0.0483398 -0.0483398 -0.0483398 -0.0322266 -0.00322266 0.00966797 0.0193359 0.0225586 0.00966797 -0.0225586 -0.0418945 -0.0483398 -0.0515625 -0.0257812 -0.00322266 0.0193359 0.00966797 0.0225586 0 -0.0128906 -0.0257812 -0.0515625 -0.0483398 -0.0128906 0 0.0193359 0.0225586 0.0225586 0 -0.0128906 -0.0418945 -0.0483398 -0.0418945 -0.0257812 -0.00322266 0.0193359 0.0225586 0.0225586 -0.00644531 -0.0257812 -0.0257812 -0.0515625 -0.0418945 -0.0225586 0.00322266 0.0225586 0.0225586 0.0225586 -0.0128906 -0.0257812 -0.0483398 -0.0483398 -0.0580078 -0.0418945 0 0.0386719 0.0225586 0.0225586 0 -0.0257812 -0.0580078 -0.0515625 -0.0483398 -0.0128906 0.00966797 0.0225586 0.0386719 0.0225586 -0.00322266 -0.0515625 -0.0805664 -0.0644531 -0.0515625 -0.0257812 0.00322266 0.0386719 0.0386719 0.0225586 -0.00322266 -0.0418945 -0.0644531 -0.0644531 -0.0580078 -0.0225586 0.00966797 0.0386719 0.0290039 0.0193359 -0.00322266 -0.0483398 -0.0741211 -0.0515625 -0.0515625 -0.0128906 0.00966797 0.0225586 0.0290039 0.00966797 -0.00644531 0 -0.0483398 -0.0483398 -0.0580078 -0.0418945 0 0.0386719 0.0225586 0.0225586 0 -0.0257812 -0.0580078 -0.0515625 -0.0483398 -0.0128906 0.00966797 0.0225586 0.0386719 0.0225586 -0.00322266 -0.0515625 -0.0805664 -0.0644531 -0.0515625 -0.0257812 0.00322266 0.0386719 0.0386719 0.0225586 -0.00322266 -0.0418945 -0.0644531 -0.0644531 -0.0580078 -0.0225586 0.00966797 0.0386719 0.0290039 0.0193359 -0.00322266 -0.0483398 -0.0741211 -0.0515625 -0.0515625 -0.0128906 0.00966797 0.0225586 0.0290039 0.00966797 -0.00644531 -0.0322266 -0.0644531 -0.0515625 -0.0515625 -0.0257812 0 0.0193359 0.0225586 0.0225586 -0.00644531 -0.0418945 -0.0515625 -0.0580078 -0.0515625 -0.0257812 -0.00322266 0.0225586 0.0225586 0.00966797 0 -0.0257812 -0.0515625 -0.0547852 -0.0580078 -0.0257812 0 0.0193359 0.00966797 0.0225586 -0.00644531 -0.0257812 -0.0515625 -0.0515625 -0.0515625 -0.0225586 0 0.0225586 0.00966797 0.00966797 -0.00322266 -0.0257812 -0.0483398 -0.0515625 -0.0515625 -0.0257812 0 0.0193359 0.00322266 0.00322266 0 0 -0.0644531 -0.0515625 -0.0515625 -0.0257812 0 0.0193359 0.0225586 0.0225586 -0.00644531 -0.0418945 -0.0515625 -0.0580078 -0.0515625 -0.0257812 -0.00322266 0.0225586 0.0225586 0.00966797 0 -0.0257812 -0.0515625 -0.0547852 -0.0580078 -0.0257812 0 0.0193359 0.00966797 0.0225586 -0.00644531 -0.0257812 -0.0515625 -0.0515625 -0.0515625 -0.0225586 0 0.0225586 0.00966797 0.00966797 -0.00322266 -0.0257812 -0.0483398 -0.0515625 -0.0515625 -0.0257812 0 0.0193359 0.00322266 0.00322266 0 -0.0257812 -0.0418945 -0.0483398 -0.0418945 -0.0257812 -0.00322266 0.0225586 0.0225586 0.00966797 0.00322266 -0.0225586 -0.0418945 -0.0418945 -0.0418945 -0.0257812 -0.00322266 0.0193359 0.00966797 0.00322266 -0.00322266 -0.0257812 -0.0418945 -0.0257812 -0.0257812 -0.0257812 -0.0128906 0 0.00966797 0.00966797 0 -0.0128906 -0.0418945 -0.0418945 -0.0418945 -0.0257812 -0.0128906 0.00966797 0.0225586 0.0193359 0.00322266 -0.0257812 -0.0257812 -0.0515625 -0.0322266 -0.0257812 -0.0128906 0.0225586 0 0.0225586 0 0 -0.0418945 -0.0483398 -0.0418945 -0.0257812 -0.00322266 0.0225586 0.0225586 0.00966797 0.00322266 -0.0225586 -0.0418945 -0.0418945 -0.0418945 -0.0257812 -0.00322266 0.0193359 0.00966797 0.00322266 -0.00322266 -0.0257812 -0.0418945 -0.0257812 -0.0257812 -0.0257812 -0.0128906 0 0.00966797 0.00966797 0 -0.0128906 -0.0418945 -0.0418945 -0.0418945 -0.0257812 -0.0128906 0.00966797 0.0225586 0.0193359 0.00322266 -0.0257812 -0.0257812 -0.0515625 -0.0322266 -0.0257812 -0.0128906 0.0225586 0 0.0225586 0 -0.0257812 -0.0257812 -0.0418945 -0.0418945 -0.0257812 -0.00644531 0.00966797 0.0225586 0.0225586 0.00322266 -0.0257812 -0.0483398 -0.0515625 -0.0322266 -0.0257812 -0.00322266 0.00966797 0.0225586 0.0225586 0.00322266 -0.0225586 -0.0483398 -0.0418945 -0.0418945 -0.0257812 0 0.0225586 0.0225586 0.0193359 -0.00322266 -0.0257812 -0.0515625 -0.0515625 -0.0515625 -0.0257812 0 0.00966797 0.0225586 0.0290039 -0.00644531 -0.0418945 -0.0515625 -0.0515625 -0.0483398 -0.0257812 -0.00644531 0.00966797 0.0193359 0.00966797 -0.00322266 0 -0.0257812 -0.0418945 -0.0418945 -0.0257812 -0.00644531 0.00966797 0.0225586 0.0225586 0.00322266 -0.0257812 -0.0483398 -0.0515625 -0.0322266 -0.0257812 -0.00322266 0.00966797 0.0225586 0.0225586 0.00322266 -0.0225586 -0.0483398 -0.0418945 -0.0418945 -0.0257812 0 0.0225586 0.0225586 0.0193359 -0.00322266 -0.0257812 -0.0515625 -0.0515625 -0.0515625 -0.0257812 0 0.00966797 0.0225586 0.0290039 -0.00644531 -0.0418945 -0.0515625 -0.0515625 -0.0483398 -0.0257812 -0.00644531 0.00966797 0.0193359 0.00966797 -0.00322266 -0.0257812 -0.0483398 -0.0483398 -0.0483398 -0.0257812 -0.00644531 0.00322266 0.00966797 0.0193359 0.00322266 -0.0225586 -0.0483398 -0.0515625 -0.0483398 -0.0257812 -0.00322266 0.0193359 0.0225586 0.00966797 0.00322266 -0.0257812 -0.0483398 -0.0515625 -0.0515625 -0.0257812 0 0.0225586 0.0193359 0.00322266 -0.00322266 -0.0257812 -0.0418945 -0.0515625 -0.0515625 -0.0257812 -0.00322266 0.00966797 -0.00322266 0.0225586 -0.00644531 -0.0257812 -0.0257812 -0.0418945 -0.0515625 -0.0257812 0 0.00966797 0.00322266 0.00966797 -0.00322266 0 -0.0483398 -0.0483398 -0.0483398 -0.0257812 -0.00644531 0.00322266 0.00966797 0.0193359 0.00322266 -0.0225586 -0.0483398 -0.0515625 -0.0483398 -0.0257812 -0.00322266 0.0193359 0.0225586 0.00966797 0.00322266 -0.0257812 -0.0483398 -0.0515625 -0.0515625 -0.0257812 0 0.0225586 0.0193359 0.00322266 -0.00322266 -0.0257812 -0.0418945 -0.0515625 -0.0515625 -0.0257812 -0.00322266 0.00966797 -0.00322266 0.0225586 -0.00644531 -0.0257812 -0.0257812 -0.0418945 -0.0515625 -0.0257812 0 0.00966797 0.00322266 0.00966797 -0.00322266 -0.0257812 -0.0322266 -0.0418945 -0.0483398 -0.0257812 -0.00322266 0.00322266 0 0.00322266 -0.00322266 -0.0257812 -0.0257812 -0.0418945 -0.0418945 -0.0257812 -0.00322266 0.00322266 0.00966797 0.00966797 -0.0128906 -0.0257812 -0.0257812 -0.0418945 -0.0418945 -0.0257812 -0.0128906 0.00322266 0.00966797 0.00322266 -0.00322266 -0.0257812 -0.0418945 -0.0418945 -0.0322266 -0.0257812 -0.00322266 0.0193359 0.0193359 0.00966797 -0.00644531 -0.0257812 -0.0483398 -0.0257812 -0.0418945 -0.0257812 -0.00322266 0.00966797 0.0225586 0.0225586 -0.00322266 0 -0.0322266 -0.0418945 -0.0483398 -0.0257812 -0.00322266 0.00322266 0 0.00322266 -0.00322266 -0.0257812 -0.0257812 -0.0418945 -0.0418945 -0.0257812 -0.00322266 0.00322266 0.00966797 0.00966797 -0.0128906 -0.0257812 -0.0257812 -0.0418945 -0.0418945 -0.0257812 -0.0128906 0.00322266 0.00966797 0.00322266 -0.00322266 -0.0257812 -0.0418945 -0.0418945 -0.0322266 -0.0257812 -0.00322266 0.0193359 0.0193359 0.00966797 -0.00644531 -0.0257812 -0.0483398 -0.0257812 -0.0418945 -0.0257812 -0.00322266 0.00966797 0.0225586 0.0225586 -0.00322266 -0.0257812 -0.0483398 -0.0418945 -0.0418945 -0.0322266 0 0.00966797 0.0225586 0.00322266 -0.00322266 -0.0225586 -0.0418945 -0.0483398 -0.0483398 -0.0257812 -0.00322266 0 0.00966797 0.0193359 -0.00322266 -0.0257812 -0.0418945 -0.0418945 -0.0483398 -0.0257812 -0.00322266 0.00966797 0.0225586 0.0225586 0 -0.0225586 -0.0418945 -0.0483398 -0.0322266 -0.0257812 -0.00644531 0.00966797 0.00966797 0.0193359 0 -0.0257812 -0.0418945 -0.0418945 -0.0418945 -0.0257812 -0.0128906 0 0.00966797 0.00966797 -0.00322266 0 -0.0483398 -0.0418945 -0.0418945 -0.0322266 0 0.00966797 0.0225586 0.00322266 -0.00322266 -0.0225586 -0.0418945 -0.0483398 -0.0483398 -0.0257812 -0.00322266 0 0.00966797 0.0193359 -0.00322266 -0.0257812 -0.0418945 -0.0418945 -0.0483398 -0.0257812 -0.00322266 0.00966797 0.0225586 0.0225586 0 -0.0225586 -0.0418945 -0.0483398 -0.0322266 -0.0257812 -0.00644531 0.00966797 0.00966797 0.0193359 0 -0.0257812 -0.0418945 -0.0418945 -0.0418945 -0.0257812 -0.0128906 0 0.00966797 0.00966797 -0.00322266 -0.0257812 -0.0515625 -0.0515625 -0.0483398 -0.0225586 -0.00322266 0.00322266 0.0225586 0.00966797 -0.00322266 -0.0225586 -0.0418945 -0.0483398 -0.0515625 -0.0128906 0.0225586 0.0999023 0.0999023 0.0805664 0.00966797 -0.0741211 -0.15791 -0.15791 -0.103125 0.00322266 0.0483398 0 0.0483398 0.15791 0.0708984 0.0966797 -0.0805664 -0.0257812 -0.0483398 -0.0418945 -0.116016 -0.0418945 0.0999023 -0.0322266 0.0483398 -0.0257812 -0.596191 -1.05703 -0.905566 -0.203027 0.203027 0.538184 0.744434 0.554297 0.592969 0 -0.0515625 -0.0515625 -0.0483398 -0.0225586 -0.00322266 0.00322266 0.0225586 0.00966797 -0.00322266 -0.0225586 -0.0418945 -0.0483398 -0.0515625 -0.0128906 0.0225586 0.0999023 0.0999023 0.0805664 0.00966797 -0.0741211 -0.15791 -0.15791 -0.103125 0.00322266 0.0483398 0 0.0483398 0.15791 0.0708984 0.0966797 -0.0805664 -0.0257812 -0.0483398 -0.0418945 -0.116016 -0.0418945 0.0999023 -0.0322266 0.0483398 -0.0257812 -0.596191 -1.05703 -0.905566 -0.203027 0.203027 0.538184 0.744434 0.554297 0.592969 0.435059 0.25459 0.0999023 -0.941016 -1.26328 -0.87334 -0.36416 0.0966797 0.77666 0.834668 1.00547 0.457617 0.451172 0.148242 -0.0128906 -0.55752 -0.425391 -0.454395 -0.244922 -0.183691 0.0999023 0.409277 0.26748 0.125684 -0.0805664 -0.0999023 -0.167578 -0.493066 -0.270703 -0.196582 -0.219141 -0.0805664 -0.335156 -0.35127 0.0999023 0.386719 0.489844 0.46084 0.435059 0.228809 0.0612305 0.0773437 -0.00644531 -0.20625 -0.454395 -0.248145 -0.167578 0.0386719 0.225586 -0.0322266 0 0.25459 0.0999023 -0.941016 -1.26328 -0.87334 -0.36416 0.0966797 0.77666 0.834668 1.00547 0.457617 0.451172 0.148242 -0.0128906 -0.55752 -0.425391 -0.454395 -0.244922 -0.183691 0.0999023 0.409277 0.26748 0.125684 -0.0805664 -0.0999023 -0.167578 -0.493066 -0.270703 -0.196582 -0.219141 -0.0805664 -0.335156 -0.35127 0.0999023 0.386719 0.489844 0.46084 0.435059 0.228809 0.0612305 0.0773437 -0.00644531 -0.20625 -0.454395 -0.248145 -0.167578 0.0386719 0.225586 -0.0322266 -0.103125 -0.116016 -0.4125 -0.177246 -0.4125 0.0483398 -0.0483398 0.203027 0.122461 0.0612305 0.251367 0.30293 0.203027 0.125684 0.125684 0.125684 0 -0.103125 -0.0805664 -0.0805664 -0.125684 -0.0515625 0 -0.0515625 -0.183691 0.0483398 0.0966797 0.0483398 0.0612305 0.0386719 -0.0515625 -0.093457 -0.0805664 -0.0257812 0.00322266 -0.196582 -0.322266 -0.15791 -0.4125 -0.128906 0.154687 0.25459 0.141797 0.15791 -0.00644531 -0.14502 -0.4125 -0.103125 0.0225586 0.0966797 0 -0.116016 -0.4125 -0.177246 -0.4125 0.0483398 -0.0483398 0.203027 0.122461 0.0612305 0.251367 0.30293 0.203027 0.125684 0.125684 0.125684 0 -0.103125 -0.0805664 -0.0805664 -0.125684 -0.0515625 0 -0.0515625 -0.183691 0.0483398 0.0966797 0.0483398 0.0612305 0.0386719 -0.0515625 -0.093457 -0.0805664 -0.0257812 0.00322266 -0.196582 -0.322266 -0.15791 -0.4125 -0.128906 0.154687 0.25459 0.141797 0.15791 -0.00644531 -0.14502 -0.4125 -0.103125 0.0225586 0.0966797 0.0805664 0.203027 0.154687 0.112793 -0.00322266 0.0483398 0.0966797 0.0225586 -0.0128906 0.00322266 -0.0128906 -0.0805664 -0.0999023 -0.0999023 -0.103125 -0.0805664 -0.0515625 -0.0418945 -0.0386719 -0.0257812 -0.0257812 -0.00644531 -0.0128906 -0.00644531 -0.00322266 -0.00644531 0.00322266 0.00966797 0.0193359 0 -0.0225586 -0.0515625 -0.0515625 -0.0580078 -0.0644531 -0.0257812 -0.0225586 -0.0128906 -0.0257812 -0.0418945 -0.0515625 -0.0837891 -0.0805664 -0.093457 -0.0418945 -0.0418945 -0.00322266 -0.00644531 -0.0257812 -0.0418945 0 0.203027 0.154687 0.112793 -0.00322266 0.0483398 0.0966797 0.0225586 -0.0128906 0.00322266 -0.0128906 -0.0805664 -0.0999023 -0.0999023 -0.103125 -0.0805664 -0.0515625 -0.0418945 -0.0386719 -0.0257812 -0.0257812 -0.00644531 -0.0128906 -0.00644531 -0.00322266 -0.00644531 0.00322266 0.00966797 0.0193359 0 -0.0225586 -0.0515625 -0.0515625 -0.0580078 -0.0644531 -0.0257812 -0.0225586 -0.0128906 -0.0257812 -0.0418945 -0.0515625 -0.0837891 -0.0805664 -0.093457 -0.0418945 -0.0418945 -0.00322266 -0.00644531 -0.0257812 -0.0418945 -0.0483398 -0.0128906 -0.0128906 -0.0128906 0 0.0290039 0.0225586 0.0225586 0.0225586 -0.0128906 -0.0418945 -0.0644531 -0.0644531 -0.0515625 -0.0128906 0.0225586 0.0386719 0.0386719 0.0386719 0.00966797 -0.0257812 -0.0515625 -0.0515625 -0.0257812 0.00966797 0.0193359 0.0547852 0.0451172 0.0225586 0.00322266 -0.0257812 -0.0483398 -0.0483398 -0.0483398 -0.0257812 -0.0128906 -0.00322266 0.00322266 0.00966797 0.00966797 0 -0.00322266 -0.0128906 -0.0257812 -0.0257812 -0.0128906 0 -0.00644531 0.00322266 0 0 -0.0128906 -0.0128906 -0.0128906 0 0.0290039 0.0225586 0.0225586 0.0225586 -0.0128906 -0.0418945 -0.0644531 -0.0644531 -0.0515625 -0.0128906 0.0225586 0.0386719 0.0386719 0.0386719 0.00966797 -0.0257812 -0.0515625 -0.0515625 -0.0257812 0.00966797 0.0193359 0.0547852 0.0451172 0.0225586 0.00322266 -0.0257812 -0.0483398 -0.0483398 -0.0483398 -0.0257812 -0.0128906 -0.00322266 0.00322266 0.00966797 0.00966797 0 -0.00322266 -0.0128906 -0.0257812 -0.0257812 -0.0128906 0 -0.00644531 0.00322266 0 -0.00322266 -0.0225586 -0.0257812 -0.0418945 -0.0257812 -0.00644531 0.00966797 0.0225586 0.00322266 -0.0257812 -0.0418945 -0.0483398 -0.0515625 -0.0580078 -0.0515625 -0.0257812 -0.00644531 -0.00644531 0.00966797 -0.0257812 -0.0483398 -0.0580078 -0.0580078 -0.0515625 -0.0418945 -0.0257812 -0.0128906 -0.0128906 -0.00322266 -0.00644531 -0.0257812 -0.0515625 -0.0515625 -0.0515625 -0.0418945 -0.0257812 -0.00644531 -0.00322266 0 -0.00644531 -0.0257812 -0.0418945 -0.0515625 -0.0515625 -0.0257812 -0.0257812 0.00966797 0.00966797 0.00966797 -0.00322266 0 -0.0225586 -0.0257812 -0.0418945 -0.0257812 -0.00644531 0.00966797 0.0225586 0.00322266 -0.0257812 -0.0418945 -0.0483398 -0.0515625 -0.0580078 -0.0515625 -0.0257812 -0.00644531 -0.00644531 0.00966797 -0.0257812 -0.0483398 -0.0580078 -0.0580078 -0.0515625 -0.0418945 -0.0257812 -0.0128906 -0.0128906 -0.00322266 -0.00644531 -0.0257812 -0.0515625 -0.0515625 -0.0515625 -0.0418945 -0.0257812 -0.00644531 -0.00322266 0 -0.00644531 -0.0257812 -0.0418945 -0.0515625 -0.0515625 -0.0257812 -0.0257812 0.00966797 0.00966797 0.00966797 -0.00322266 -0.0128906 -0.0547852 -0.0483398 -0.0483398 -0.0322266 -0.00644531 0.00966797 0.0225586 0.00322266 -0.0225586 -0.0483398 -0.0547852 -0.0322266 -0.0483398 -0.0418945 0 0.00966797 0.00322266 0.00966797 0 -0.0128906 -0.0257812 -0.0257812 -0.0322266 -0.0257812 0 0.0225586 0.0193359 0.0193359 -0.00322266 -0.0257812 -0.0483398 -0.0515625 -0.0483398 -0.0257812 -0.0128906 0.00322266 0.00966797 0.00966797 -0.00644531 -0.0128906 -0.0418945 -0.0515625 -0.0483398 -0.0483398 -0.0257812 0 -0.00322266 0 -0.00322266 0 -0.0547852 -0.0483398 -0.0483398 -0.0322266 -0.00644531 0.00966797 0.0225586 0.00322266 -0.0225586 -0.0483398 -0.0547852 -0.0322266 -0.0483398 -0.0418945 0 0.00966797 0.00322266 0.00966797 0 -0.0128906 -0.0257812 -0.0257812 -0.0322266 -0.0257812 0 0.0225586 0.0193359 0.0193359 -0.00322266 -0.0257812 -0.0483398 -0.0515625 -0.0483398 -0.0257812 -0.0128906 0.00322266 0.00966797 0.00966797 -0.00644531 -0.0128906 -0.0418945 -0.0515625 -0.0483398 -0.0483398 -0.0257812 0 -0.00322266 0 -0.00322266 -0.0257812 -0.0515625 -0.0515625 -0.0805664 -0.0515625 -0.0257812 0 0.0225586 0.00966797 -0.00322266 -0.0225586 -0.0483398 -0.0418945 -0.0386719 -0.0257812 0 0.0225586 0.00966797 0.0193359 0.00322266 -0.0128906 -0.0418945 -0.0418945 -0.0322266 -0.0128906 -0.00322266 0.00966797 0.00966797 0.0193359 0 -0.0257812 -0.0386719 -0.0322266 -0.0322266 -0.0128906 -0.0128906 -0.0128906 0.00966797 0.0225586 0.00966797 -0.0257812 -0.0483398 -0.0515625 -0.0483398 -0.0257812 -0.0257812 -0.00322266 -0.00322266 0.0386719 0.00966797 0 -0.0515625 -0.0515625 -0.0805664 -0.0515625 -0.0257812 0 0.0225586 0.00966797 -0.00322266 -0.0225586 -0.0483398 -0.0418945 -0.0386719 -0.0257812 0 0.0225586 0.00966797 0.0193359 0.00322266 -0.0128906 -0.0418945 -0.0418945 -0.0322266 -0.0128906 -0.00322266 0.00966797 0.00966797 0.0193359 0 -0.0257812 -0.0386719 -0.0322266 -0.0322266 -0.0128906 -0.0128906 -0.0128906 0.00966797 0.0225586 0.00966797 -0.0257812 -0.0483398 -0.0515625 -0.0483398 -0.0257812 -0.0257812 -0.00322266 -0.00322266 0.0386719 0.00966797 0 -0.0257812 -0.0128906 -0.0257812 -0.0128906 -0.00644531 0.00322266 -0.00322266 0.0225586 0 -0.00644531 -0.0257812 -0.0257812 -0.0418945 -0.0257812 -0.00322266 -0.00644531 -0.0128906 0 0 -0.00644531 -0.0257812 -0.0418945 -0.0418945 -0.0257812 -0.0225586 0 -0.0128906 0.00322266 0.00322266 0 -0.0128906 -0.0257812 -0.0257812 -0.0257812 -0.0225586 -0.00322266 0 0.0193359 0.00966797 -0.00322266 -0.0225586 -0.0257812 -0.0257812 -0.0418945 -0.00322266 0.00966797 0.00966797 0.00966797 0.00322266 0 -0.0257812 -0.0128906 -0.0257812 -0.0128906 -0.00644531 0.00322266 -0.00322266 0.0225586 0 -0.00644531 -0.0257812 -0.0257812 -0.0418945 -0.0257812 -0.00322266 -0.00644531 -0.0128906 0 0 -0.00644531 -0.0257812 -0.0418945 -0.0418945 -0.0257812 -0.0225586 0 -0.0128906 0.00322266 0.00322266 0 -0.0128906 -0.0257812 -0.0257812 -0.0257812 -0.0225586 -0.00322266 0 0.0193359 0.00966797 -0.00322266 -0.0225586 -0.0257812 -0.0257812 -0.0418945 -0.00322266 0.00966797 0.00966797 0.00966797 0.00322266 -0.00644531 -0.0257812 -0.0257812 -0.0483398 -0.0418945 -0.0128906 0 0.0193359 0.0225586 0.00966797 -0.00322266 -0.0257812 -0.0322266 -0.0257812 -0.0257812 -0.00322266 0.00966797 0 0.00322266 0 -0.00644531 -0.0257812 -0.0257812 -0.0418945 -0.0257812 -0.0128906 0.00322266 0.00966797 0.0225586 0.00322266 -0.0128906 -0.0322266 -0.0418945 -0.0418945 -0.0257812 -0.00644531 0.00322266 0.00322266 0.00322266 -0.00322266 -0.0128906 -0.0257812 -0.0418945 -0.0418945 -0.0225586 -0.0128906 -0.0128906 0.00322266 0.00322266 0 0 -0.0257812 -0.0257812 -0.0483398 -0.0418945 -0.0128906 0 0.0193359 0.0225586 0.00966797 -0.00322266 -0.0257812 -0.0322266 -0.0257812 -0.0257812 -0.00322266 0.00966797 0 0.00322266 0 -0.00644531 -0.0257812 -0.0257812 -0.0418945 -0.0257812 -0.0128906 0.00322266 0.00966797 0.0225586 0.00322266 -0.0128906 -0.0322266 -0.0418945 -0.0418945 -0.0257812 -0.00644531 0.00322266 0.00322266 0.00322266 -0.00322266 -0.0128906 -0.0257812 -0.0418945 -0.0418945 -0.0225586 -0.0128906 -0.0128906 0.00322266 0.00322266 0 -0.0225586 -0.0257812 -0.0257812 -0.0418945 -0.0225586 -0.00644531 -0.00322266 0.00966797 0.00322266 0.00322266 -0.00644531 -0.0257812 -0.0257812 -0.0257812 -0.0257812 -0.0257812 -0.0128906 -0.00322266 0.0225586 0.00966797 -0.0128906 -0.0257812 -0.0257812 -0.0418945 -0.0257812 -0.00644531 -0.00322266 0.00322266 0.00966797 0 -0.0128906 -0.0418945 -0.0257812 -0.0418945 -0.0257812 -0.0128906 -0.00322266 -0.00322266 0.00966797 0.00322266 -0.00644531 -0.0257812 -0.0322266 -0.0418945 -0.0257812 -0.0128906 0.00966797 0.0225586 0.0193359 0 0 -0.0257812 -0.0257812 -0.0418945 -0.0225586 -0.00644531 -0.00322266 0.00966797 0.00322266 0.00322266 -0.00644531 -0.0257812 -0.0257812 -0.0257812 -0.0257812 -0.0257812 -0.0128906 -0.00322266 0.0225586 0.00966797 -0.0128906 -0.0257812 -0.0257812 -0.0418945 -0.0257812 -0.00644531 -0.00322266 0.00322266 0.00966797 0 -0.0128906 -0.0418945 -0.0257812 -0.0418945 -0.0257812 -0.0128906 -0.00322266 -0.00322266 0.00966797 0.00322266 -0.00644531 -0.0257812 -0.0322266 -0.0418945 -0.0257812 -0.0128906 0.00966797 0.0225586 0.0193359 0 -0.0128906 -0.0257812 -0.0322266 -0.0257812 -0.0257812 -0.0128906 -0.00644531 -0.00322266 0.00966797 0 -0.0128906 -0.0257812 -0.0322266 -0.0322266 -0.0225586 -0.0257812 -0.0128906 -0.00322266 0.0193359 0 -0.0128906 -0.0257812 -0.0418945 -0.0418945 -0.0257812 -0.0128906 -0.00322266 0.00966797 0.00966797 -0.00322266 -0.0128906 -0.0257812 -0.0483398 -0.0418945 -0.0257812 -0.00644531 0 0.00322266 0.0193359 0.00322266 -0.0128906 -0.0257812 -0.0257812 -0.0418945 -0.0257812 -0.0128906 0.00322266 0.00966797 0.00966797 0.00322266 0 -0.0257812 -0.0322266 -0.0257812 -0.0257812 -0.0128906 -0.00644531 -0.00322266 0.00966797 0 -0.0128906 -0.0257812 -0.0322266 -0.0322266 -0.0225586 -0.0257812 -0.0128906 -0.00322266 0.0193359 0 -0.0128906 -0.0257812 -0.0418945 -0.0418945 -0.0257812 -0.0128906 -0.00322266 0.00966797 0.00966797 -0.00322266 -0.0128906 -0.0257812 -0.0483398 -0.0418945 -0.0257812 -0.00644531 0 0.00322266 0.0193359 0.00322266 -0.0128906 -0.0257812 -0.0257812 -0.0418945 -0.0257812 -0.0128906 0.00322266 0.00966797 0.00966797 0.00322266 -0.0128906 -0.0257812 -0.0418945 -0.0418945 -0.0257812 -0.00644531 0.00322266 0.00966797 0.00966797 0.00322266 -0.00644531 -0.0257812 -0.0418945 -0.0257812 -0.00644531 -0.0128906 0 0.00966797 0 0.00322266 -0.0128906 -0.0483398 -0.0483398 -0.0418945 -0.0322266 -0.0128906 0.00322266 -0.00322266 0.00966797 0.00322266 -0.0128906 -0.0257812 -0.0257812 -0.0515625 -0.0257812 -0.0128906 0 0.0225586 0.0225586 0.00966797 -0.0128906 -0.0418945 -0.0257812 -0.0418945 -0.0257812 -0.0128906 0.0193359 0.00322266 0.00966797 0.00322266 0 -0.0257812 -0.0418945 -0.0418945 -0.0257812 -0.00644531 0.00322266 0.00966797 0.00966797 0.00322266 -0.00644531 -0.0257812 -0.0418945 -0.0257812 -0.00644531 -0.0128906 0 0.00966797 0 0.00322266 -0.0128906 -0.0483398 -0.0483398 -0.0418945 -0.0322266 -0.0128906 0.00322266 -0.00322266 0.00966797 0.00322266 -0.0128906 -0.0257812 -0.0257812 -0.0515625 -0.0257812 -0.0128906 0 0.0225586 0.0225586 0.00966797 -0.0128906 -0.0418945 -0.0257812 -0.0418945 -0.0257812 -0.0128906 0.0193359 0.00322266 0.00966797 0.00322266 -0.0128906 -0.0386719 -0.0418945 -0.0418945 -0.0257812 -0.0128906 0.00322266 0.00966797 0.0128906 0.00966797 -0.0128906 -0.0418945 -0.0483398 -0.0515625 -0.0225586 -0.0128906 -0.00644531 -0.00322266 0.00966797 0.00322266 -0.0161133 -0.0257812 -0.0257812 -0.0418945 -0.0257812 -0.00644531 0.00966797 0.00322266 0.00966797 -0.0128906 -0.0225586 -0.0257812 -0.0418945 -0.0418945 -0.0257812 -0.00322266 0.00322266 0 0.00966797 -0.00644531 -0.0128906 -0.0418945 -0.0483398 -0.0418945 -0.0418945 -0.0128906 0.00322266 0.00966797 0.00322266 0 0 -0.0386719 -0.0418945 -0.0418945 -0.0257812 -0.0128906 0.00322266 0.00966797 0.0128906 0.00966797 -0.0128906 -0.0418945 -0.0483398 -0.0515625 -0.0225586 -0.0128906 -0.00644531 -0.00322266 0.00966797 0.00322266 -0.0161133 -0.0257812 -0.0257812 -0.0418945 -0.0257812 -0.00644531 0.00966797 0.00322266 0.00966797 -0.0128906 -0.0225586 -0.0257812 -0.0418945 -0.0418945 -0.0257812 -0.00322266 0.00322266 0 0.00966797 -0.00644531 -0.0128906 -0.0418945 -0.0483398 -0.0418945 -0.0418945 -0.0128906 0.00322266 0.00966797 0.00322266 0 -0.00644531 -0.0257812 -0.0257812 -0.0418945 -0.0257812 -0.00322266 0 0.00322266 0.00322266 -0.00322266 -0.0128906 -0.0322266 -0.0418945 -0.0483398 -0.0257812 -0.00644531 0.00966797 0.00966797 0.00966797 0 -0.0257812 -0.0418945 -0.0418945 -0.0483398 -0.0322266 -0.00644531 0.00966797 -0.00644531 0.00322266 0 -0.0128906 -0.0257812 -0.0322266 -0.0257812 -0.0257812 -0.0257812 -0.00322266 0.00966797 0.0225586 0.0225586 -0.0128906 -0.0483398 -0.0418945 -0.0418945 -0.0257812 -0.0128906 -0.00322266 0 0.00322266 0.00966797 0 -0.0257812 -0.0257812 -0.0418945 -0.0257812 -0.00322266 0 0.00322266 0.00322266 -0.00322266 -0.0128906 -0.0322266 -0.0418945 -0.0483398 -0.0257812 -0.00644531 0.00966797 0.00966797 0.00966797 0 -0.0257812 -0.0418945 -0.0418945 -0.0483398 -0.0322266 -0.00644531 0.00966797 -0.00644531 0.00322266 0 -0.0128906 -0.0257812 -0.0322266 -0.0257812 -0.0257812 -0.0257812 -0.00322266 0.00966797 0.0225586 0.0225586 -0.0128906 -0.0483398 -0.0418945 -0.0418945 -0.0257812 -0.0128906 -0.00322266 0 0.00322266 0.00966797 0 -0.0322266 -0.0418945 -0.0418945 -0.0257812 -0.00644531 -0.00644531 0.0225586 0.0193359 0.00322266 -0.0257812 -0.0257812 -0.0483398 -0.0418945 -0.0257812 -0.0257812 0.00322266 0.00322266 0.0193359 0.0193359 -0.0128906 -0.0418945 -0.0418945 -0.0483398 -0.0257812 -0.0128906 0.00322266 0.0225586 0.0193359 0 -0.0257812 -0.0418945 -0.0515625 -0.0515625 -0.0257812 -0.00644531 0 0.00966797 0.0225586 0 -0.0128906 -0.0257812 -0.0515625 -0.0515625 -0.0483398 -0.0257812 0 0.00966797 0.0193359 0.00322266 0 -0.0322266 -0.0418945 -0.0418945 -0.0257812 -0.00644531 -0.00644531 0.0225586 0.0193359 0.00322266 -0.0257812 -0.0257812 -0.0483398 -0.0418945 -0.0257812 -0.0257812 0.00322266 0.00322266 0.0193359 0.0193359 -0.0128906 -0.0418945 -0.0418945 -0.0483398 -0.0257812 -0.0128906 0.00322266 0.0225586 0.0193359 0 -0.0257812 -0.0418945 -0.0515625 -0.0515625 -0.0257812 -0.00644531 0 0.00966797 0.0225586 0 -0.0128906 -0.0257812 -0.0515625 -0.0515625 -0.0483398 -0.0257812 0 0.00966797 0.0193359 0.00322266 -0.0128906 -0.0257812 -0.0257812 -0.0322266 -0.0257812 -0.0128906 0 0.00322266 0.00966797 -0.00322266 -0.0128906 -0.0257812 -0.0257812 -0.0257812 -0.0418945 -0.0257812 -0.0128906 0.00322266 0.0225586 0.00322266 0 -0.0128906 -0.0515625 -0.0644531 -0.0322266 -0.0225586 0 0.0225586 0.0225586 0.00966797 -0.00322266 -0.0257812 -0.0515625 -0.0837891 -0.0580078 -0.0257812 0.125684 0.0483398 0.0902344 0.0386719 -0.0257812 0.0225586 -0.128906 0.00322266 0.0999023 0.0612305 0.0547852 0.0773437 -0.15791 -0.238477 0 -0.0257812 -0.0257812 -0.0322266 -0.0257812 -0.0128906 0 0.00322266 0.00966797 -0.00322266 -0.0128906 -0.0257812 -0.0257812 -0.0257812 -0.0418945 -0.0257812 -0.0128906 0.00322266 0.0225586 0.00322266 0 -0.0128906 -0.0515625 -0.0644531 -0.0322266 -0.0225586 0 0.0225586 0.0225586 0.00966797 -0.00322266 -0.0257812 -0.0515625 -0.0837891 -0.0580078 -0.0257812 0.125684 0.0483398 0.0902344 0.0386719 -0.0257812 0.0225586 -0.128906 0.00322266 0.0999023 0.0612305 0.0547852 0.0773437 -0.15791 -0.238477 -0.438281 -0.493066 -0.402832 -0.0257812 0.348047 0.331934 0.0386719 -0.232031 -0.373828 -0.15791 0.338379 0.193359 0.228809 0.203027 0.270703 -0.438281 -0.683203 -0.493066 0.203027 0.66709 0.844336 0.657422 0 0.0902344 -0.00644531 -0.257812 -0.57041 -0.335156 -0.928125 -0.196582 -0.15791 -0.0999023 0.389941 0.605859 0.489844 -0.161133 -0.631641 -0.670312 -0.631641 -0.0805664 -0.20625 0.244922 0.441504 0.309375 -0.493066 -0.20625 0.46084 0.937793 1.05059 0.937793 0 -0.493066 -0.402832 -0.0257812 0.348047 0.331934 0.0386719 -0.232031 -0.373828 -0.15791 0.338379 0.193359 0.228809 0.203027 0.270703 -0.438281 -0.683203 -0.493066 0.203027 0.66709 0.844336 0.657422 0 0.0902344 -0.00644531 -0.257812 -0.57041 -0.335156 -0.928125 -0.196582 -0.15791 -0.0999023 0.389941 0.605859 0.489844 -0.161133 -0.631641 -0.670312 -0.631641 -0.0805664 -0.20625 0.244922 0.441504 0.309375 -0.493066 -0.20625 0.46084 0.937793 1.05059 0.937793 0.596191 0.319043 0.283594 -0.0128906 -0.183691 -0.35127 -0.14502 0.0999023 0.154687 0.0902344 -0.0805664 -0.128906 -0.183691 -0.15791 -0.14502 -0.0999023 -0.286816 -0.286816 -0.125684 0.0483398 0.154687 0.25459 -0.454395 -0.493066 -0.802441 -1.0957 -0.232031 0.309375 0.386719 0.435059 0.493066 0.46084 -0.286816 -0.103125 0.125684 0.309375 0.283594 0.203027 0.25459 0.180469 0.0225586 -0.0257812 -0.0580078 -0.0128906 -0.0483398 -0.0128906 -0.0547852 -0.103125 -0.0644531 -0.0805664 0 0.319043 0.283594 -0.0128906 -0.183691 -0.35127 -0.14502 0.0999023 0.154687 0.0902344 -0.0805664 -0.128906 -0.183691 -0.15791 -0.14502 -0.0999023 -0.286816 -0.286816 -0.125684 0.0483398 0.154687 0.25459 -0.454395 -0.493066 -0.802441 -1.0957 -0.232031 0.309375 0.386719 0.435059 0.493066 0.46084 -0.286816 -0.103125 0.125684 0.309375 0.283594 0.203027 0.25459 0.180469 0.0225586 -0.0257812 -0.0580078 -0.0128906 -0.0483398 -0.0128906 -0.0547852 -0.103125 -0.0644531 -0.0805664 -0.0644531 -0.0515625 -0.0999023 -0.103125 -0.15791 -0.186914 -0.167578 -0.0644531 0.00966797 -0.0257812 -0.0644531 -0.128906 -0.125684 -0.464062 -0.476953 -0.438281 -0.196582 0.193359 0.61875 0.708984 0.370605 0.180469 0.0902344 -0.14502 -0.257812 -0.393164 -0.335156 -0.257812 -0.15791 -0.0999023 -0.0418945 -0.116016 -0.15791 -0.116016 -0.0837891 -0.0483398 -0.0225586 0.00966797 0.0290039 0.0225586 -0.00644531 -0.0322266 -0.0515625 -0.0515625 -0.0483398 -0.0257812 -0.00644531 0 0.0225586 -0.0225586 0 -0.0515625 -0.0999023 -0.103125 -0.15791 -0.186914 -0.167578 -0.0644531 0.00966797 -0.0257812 -0.0644531 -0.128906 -0.125684 -0.464062 -0.476953 -0.438281 -0.196582 0.193359 0.61875 0.708984 0.370605 0.180469 0.0902344 -0.14502 -0.257812 -0.393164 -0.335156 -0.257812 -0.15791 -0.0999023 -0.0418945 -0.116016 -0.15791 -0.116016 -0.0837891 -0.0483398 -0.0225586 0.00966797 0.0290039 0.0225586 -0.00644531 -0.0322266 -0.0515625 -0.0515625 -0.0483398 -0.0257812 -0.00644531 0 0.0225586 -0.0225586 -0.0128906 -0.0257812 -0.0322266 -0.0418945 -0.00322266 0.00322266 0.00966797 0.0225586 0.0290039 0.00322266 -0.0418945 -0.0418945 -0.0257812 -0.0418945 -0.00644531 0.0193359 0.0386719 0.0386719 0.0193359 -0.00644531 -0.0515625 -0.0741211 -0.0837891 -0.0805664 -0.0515625 -0.0257812 0.00966797 0.00966797 -0.00644531 -0.0257812 -0.0644531 -0.093457 -0.0515625 -0.0257812 0 0.0386719 0.0225586 0.0225586 0.0193359 0 -0.0257812 -0.0515625 -0.0515625 -0.0515625 -0.00644531 0.0225586 0.0225586 0.0386719 0.0225586 0 0 -0.0257812 -0.0322266 -0.0418945 -0.00322266 0.00322266 0.00966797 0.0225586 0.0290039 0.00322266 -0.0418945 -0.0418945 -0.0257812 -0.0418945 -0.00644531 0.0193359 0.0386719 0.0386719 0.0193359 -0.00644531 -0.0515625 -0.0741211 -0.0837891 -0.0805664 -0.0515625 -0.0257812 0.00966797 0.00966797 -0.00644531 -0.0257812 -0.0644531 -0.093457 -0.0515625 -0.0257812 0 0.0386719 0.0225586 0.0225586 0.0193359 0 -0.0257812 -0.0515625 -0.0515625 -0.0515625 -0.00644531 0.0225586 0.0225586 0.0386719 0.0225586 0 -0.0128906 -0.0128906 -0.0257812 -0.0128906 0.00322266 -0.00322266 0.00322266 0.0225586 0.0193359 0 -0.0128906 -0.0257812 -0.0128906 -0.0257812 -0.0225586 0.00966797 0.00966797 0 -0.00322266 -0.0128906 -0.0257812 -0.0257812 -0.0257812 -0.0322266 -0.0257812 -0.0128906 0 -0.0257812 0 -0.00322266 -0.0128906 -0.0257812 -0.0128906 -0.0257812 -0.0418945 -0.0225586 -0.00322266 -0.00322266 0 -0.00644531 -0.0257812 -0.0418945 -0.0418945 -0.0515625 -0.0257812 -0.0225586 -0.0257812 -0.00644531 -0.00322266 -0.0128906 0 -0.0128906 -0.0257812 -0.0128906 0.00322266 -0.00322266 0.00322266 0.0225586 0.0193359 0 -0.0128906 -0.0257812 -0.0128906 -0.0257812 -0.0225586 0.00966797 0.00966797 0 -0.00322266 -0.0128906 -0.0257812 -0.0257812 -0.0257812 -0.0322266 -0.0257812 -0.0128906 0 -0.0257812 0 -0.00322266 -0.0128906 -0.0257812 -0.0128906 -0.0257812 -0.0418945 -0.0225586 -0.00322266 -0.00322266 0 -0.00644531 -0.0257812 -0.0418945 -0.0418945 -0.0515625 -0.0257812 -0.0225586 -0.0257812 -0.00644531 -0.00322266 -0.0128906 -0.0257812 -0.0483398 -0.0580078 -0.0515625 -0.0257812 -0.0257812 -0.0128906 -0.00644531 -0.00322266 -0.00644531 -0.0257812 -0.0418945 -0.0483398 -0.0418945 -0.0225586 -0.00322266 0.0193359 0.0225586 0.0193359 0 -0.0225586 -0.0418945 -0.0322266 -0.0128906 -0.00322266 0.00322266 0 0.0225586 0.0225586 0.00322266 -0.0128906 -0.0257812 -0.0257812 -0.0515625 -0.0128906 -0.00322266 0.00322266 0.0225586 0.0225586 0.00322266 -0.0225586 -0.0418945 -0.0257812 -0.0257812 -0.0418945 -0.00322266 0.0193359 0.00966797 0.00966797 -0.00322266 0 -0.0483398 -0.0580078 -0.0515625 -0.0257812 -0.0257812 -0.0128906 -0.00644531 -0.00322266 -0.00644531 -0.0257812 -0.0418945 -0.0483398 -0.0418945 -0.0225586 -0.00322266 0.0193359 0.0225586 0.0193359 0 -0.0225586 -0.0418945 -0.0322266 -0.0128906 -0.00322266 0.00322266 0 0.0225586 0.0225586 0.00322266 -0.0128906 -0.0257812 -0.0257812 -0.0515625 -0.0128906 -0.00322266 0.00322266 0.0225586 0.0225586 0.00322266 -0.0225586 -0.0418945 -0.0257812 -0.0257812 -0.0418945 -0.00322266 0.0193359 0.00966797 0.00966797 -0.00322266 -0.0225586 -0.0418945 -0.0257812 -0.0386719 -0.0257812 -0.00322266 0.00966797 0 0.00966797 0 -0.0225586 -0.0483398 -0.0515625 -0.0515625 -0.0322266 -0.0225586 -0.00322266 -0.00322266 0 -0.0128906 -0.0257812 -0.0515625 -0.0515625 -0.0483398 -0.0418945 -0.0257812 -0.0128906 -0.00644531 -0.00322266 -0.0128906 -0.0128906 -0.0322266 -0.0580078 -0.0515625 -0.0515625 -0.0128906 -0.00322266 0 0.00966797 -0.00644531 -0.0257812 -0.0418945 -0.0418945 -0.0515625 -0.0418945 -0.00322266 0 0.0193359 0.00966797 0 0 -0.0418945 -0.0257812 -0.0386719 -0.0257812 -0.00322266 0.00966797 0 0.00966797 0 -0.0225586 -0.0483398 -0.0515625 -0.0515625 -0.0322266 -0.0225586 -0.00322266 -0.00322266 0 -0.0128906 -0.0257812 -0.0515625 -0.0515625 -0.0483398 -0.0418945 -0.0257812 -0.0128906 -0.00644531 -0.00322266 -0.0128906 -0.0128906 -0.0322266 -0.0580078 -0.0515625 -0.0515625 -0.0128906 -0.00322266 0 0.00966797 -0.00644531 -0.0257812 -0.0418945 -0.0418945 -0.0515625 -0.0418945 -0.00322266 0 0.0193359 0.00966797 0 -0.0418945 -0.0418945 -0.0322266 -0.0322266 -0.0225586 -0.00322266 0 0.00966797 0.00966797 -0.00322266 -0.0128906 -0.0257812 -0.0322266 -0.0257812 -0.0257812 -0.0225586 0.00322266 0.00322266 0.0193359 0.00966797 0 -0.0128906 -0.0257812 -0.0483398 -0.0257812 -0.00644531 0.00966797 0.0225586 0.0193359 -0.00322266 -0.0225586 -0.0257812 -0.0128906 -0.0225586 -0.0128906 0 0.0225586 0.0225586 0.0193359 0.0225586 0.00322266 -0.0257812 -0.0257812 -0.0257812 -0.0128906 0 0 0 0.00966797 0.0193359 0 -0.0418945 -0.0322266 -0.0322266 -0.0225586 -0.00322266 0 0.00966797 0.00966797 -0.00322266 -0.0128906 -0.0257812 -0.0322266 -0.0257812 -0.0257812 -0.0225586 0.00322266 0.00322266 0.0193359 0.00966797 0 -0.0128906 -0.0257812 -0.0483398 -0.0257812 -0.00644531 0.00966797 0.0225586 0.0193359 -0.00322266 -0.0225586 -0.0257812 -0.0128906 -0.0225586 -0.0128906 0 0.0225586 0.0225586 0.0193359 0.0225586 0.00322266 -0.0257812 -0.0257812 -0.0257812 -0.0128906 0 0 0 0.00966797 0.0193359 -0.00322266 -0.0257812 -0.0418945 -0.0257812 -0.0257812 -0.0257812 -0.00644531 0.00322266 0.0193359 0.00966797 -0.0128906 -0.0257812 -0.0257812 -0.0322266 -0.0257812 -0.0225586 -0.0225586 -0.00644531 0.00322266 0 -0.0128906 -0.0257812 -0.0322266 -0.0418945 -0.0418945 -0.0128906 -0.00322266 0.0193359 0.00322266 -0.00322266 -0.0128906 -0.0257812 -0.0257812 -0.0418945 -0.0257812 -0.0128906 0.00322266 0.00322266 0.00322266 -0.00644531 -0.0257812 -0.0418945 -0.0418945 -0.0515625 -0.0257812 -0.00322266 -0.00322266 -0.00322266 0.00966797 0 0 -0.0257812 -0.0418945 -0.0257812 -0.0257812 -0.0257812 -0.00644531 0.00322266 0.0193359 0.00966797 -0.0128906 -0.0257812 -0.0257812 -0.0322266 -0.0257812 -0.0225586 -0.0225586 -0.00644531 0.00322266 0 -0.0128906 -0.0257812 -0.0322266 -0.0418945 -0.0418945 -0.0128906 -0.00322266 0.0193359 0.00322266 -0.00322266 -0.0128906 -0.0257812 -0.0257812 -0.0418945 -0.0257812 -0.0128906 0.00322266 0.00322266 0.00322266 -0.00644531 -0.0257812 -0.0418945 -0.0418945 -0.0515625 -0.0257812 -0.00322266 -0.00322266 -0.00322266 0.00966797 0 -0.0257812 -0.0418945 -0.0515625 -0.0515625 -0.0257812 -0.0257812 -0.00322266 0 -0.00322266 -0.0128906 -0.0225586 -0.0418945 -0.0322266 -0.0418945 -0.0418945 -0.0257812 0.00322266 0.00322266 0.00966797 -0.00322266 -0.0128906 -0.0322266 -0.0322266 -0.0418945 -0.0257812 0 0.00322266 0.00966797 0.0193359 -0.00644531 -0.0128906 -0.0257812 -0.0418945 -0.0483398 -0.0257812 -0.0257812 0 0.00966797 0.0225586 0.00322266 -0.0225586 -0.0257812 -0.0257812 -0.0418945 -0.0418945 -0.0257812 0.0193359 0.0193359 0 0 0 -0.0418945 -0.0515625 -0.0515625 -0.0257812 -0.0257812 -0.00322266 0 -0.00322266 -0.0128906 -0.0225586 -0.0418945 -0.0322266 -0.0418945 -0.0418945 -0.0257812 0.00322266 0.00322266 0.00966797 -0.00322266 -0.0128906 -0.0322266 -0.0322266 -0.0418945 -0.0257812 0 0.00322266 0.00966797 0.0193359 -0.00644531 -0.0128906 -0.0257812 -0.0418945 -0.0483398 -0.0257812 -0.0257812 0 0.00966797 0.0225586 0.00322266 -0.0225586 -0.0257812 -0.0257812 -0.0418945 -0.0418945 -0.0257812 0.0193359 0.0193359 0 0 -0.00644531 -0.0225586 -0.0418945 -0.0515625 -0.0322266 -0.0257812 -0.00322266 -0.00322266 0 0.00966797 -0.00322266 -0.0225586 -0.0128906 -0.0322266 -0.0257812 -0.0128906 -0.00644531 0.00966797 0.00966797 0.00966797 -0.00644531 -0.0128906 -0.0257812 -0.0257812 -0.0257812 -0.0257812 -0.00644531 0 0.0193359 0.0225586 0.00322266 -0.0128906 -0.0257812 -0.0257812 -0.0418945 -0.0257812 -0.0225586 0 0.00966797 0.0193359 0 -0.0161133 -0.0257812 -0.0418945 -0.0257812 -0.0257812 -0.00644531 0 0.0225586 0 0 -0.0225586 -0.0418945 -0.0515625 -0.0322266 -0.0257812 -0.00322266 -0.00322266 0 0.00966797 -0.00322266 -0.0225586 -0.0128906 -0.0322266 -0.0257812 -0.0128906 -0.00644531 0.00966797 0.00966797 0.00966797 -0.00644531 -0.0128906 -0.0257812 -0.0257812 -0.0257812 -0.0257812 -0.00644531 0 0.0193359 0.0225586 0.00322266 -0.0128906 -0.0257812 -0.0257812 -0.0418945 -0.0257812 -0.0225586 0 0.00966797 0.0193359 0 -0.0161133 -0.0257812 -0.0418945 -0.0257812 -0.0257812 -0.00644531 0 0.0225586 0 -0.00322266 -0.0225586 -0.0257812 -0.0483398 -0.0418945 -0.0225586 -0.0225586 0 0 0.00966797 -0.00322266 -0.0257812 -0.0322266 -0.0418945 -0.0257812 -0.0257812 -0.0128906 -0.00644531 0.00966797 0.00966797 -0.0128906 -0.0257812 -0.0225586 -0.0257812 -0.0257812 -0.0225586 -0.0225586 0 0.0225586 0.00322266 -0.0257812 -0.0418945 -0.0418945 -0.0483398 -0.0257812 -0.0128906 -0.00322266 0 0.00966797 -0.00322266 -0.0128906 -0.0418945 -0.0418945 -0.0418945 -0.0257812 -0.0225586 -0.00322266 0 0.00966797 0.00322266 0 -0.0225586 -0.0257812 -0.0483398 -0.0418945 -0.0225586 -0.0225586 0 0 0.00966797 -0.00322266 -0.0257812 -0.0322266 -0.0418945 -0.0257812 -0.0257812 -0.0128906 -0.00644531 0.00966797 0.00966797 -0.0128906 -0.0257812 -0.0225586 -0.0257812 -0.0257812 -0.0225586 -0.0225586 0 0.0225586 0.00322266 -0.0257812 -0.0418945 -0.0418945 -0.0483398 -0.0257812 -0.0128906 -0.00322266 0 0.00966797 -0.00322266 -0.0128906 -0.0418945 -0.0418945 -0.0418945 -0.0257812 -0.0225586 -0.00322266 0 0.00966797 0.00322266 -0.0128906 -0.0418945 -0.0257812 -0.0418945 -0.0322266 -0.0128906 -0.00322266 0.00966797 0.0193359 -0.00322266 -0.0225586 -0.0418945 -0.0257812 -0.0322266 -0.0257812 -0.00644531 0.00322266 0.00322266 0.0193359 0.00322266 -0.00644531 -0.0322266 -0.0418945 -0.0322266 -0.0257812 -0.0225586 -0.0128906 0.00322266 0.00322266 0.00322266 0 -0.0257812 -0.0257812 -0.0418945 -0.0418945 -0.0128906 0 0.00322266 0.00966797 0 -0.0225586 -0.0257812 -0.0257812 -0.0418945 -0.0257812 -0.0225586 0 0.00966797 0.0225586 -0.00322266 0 -0.0418945 -0.0257812 -0.0418945 -0.0322266 -0.0128906 -0.00322266 0.00966797 0.0193359 -0.00322266 -0.0225586 -0.0418945 -0.0257812 -0.0322266 -0.0257812 -0.00644531 0.00322266 0.00322266 0.0193359 0.00322266 -0.00644531 -0.0322266 -0.0418945 -0.0322266 -0.0257812 -0.0225586 -0.0128906 0.00322266 0.00322266 0.00322266 0 -0.0257812 -0.0257812 -0.0418945 -0.0418945 -0.0128906 0 0.00322266 0.00966797 0 -0.0225586 -0.0257812 -0.0257812 -0.0418945 -0.0257812 -0.0225586 0 0.00966797 0.0225586 -0.00322266 -0.00644531 -0.0418945 -0.0257812 -0.0418945 -0.0128906 -0.00644531 0.00322266 0.00966797 0.00322266 0.00322266 -0.0128906 -0.0257812 -0.0418945 -0.0418945 -0.0257812 -0.0128906 0 -0.00322266 0 0.00322266 -0.0128906 -0.0418945 -0.0257812 -0.0515625 -0.0418945 -0.0257812 -0.00322266 0.00322266 0 0.0193359 -0.0128906 -0.0257812 -0.0418945 -0.0418945 -0.0257812 -0.00644531 0.00966797 0 0.00966797 -0.00322266 -0.0225586 -0.0128906 -0.0418945 -0.0515625 -0.0483398 -0.0128906 0 0.00966797 0 0.00966797 0 -0.0418945 -0.0257812 -0.0418945 -0.0128906 -0.00644531 0.00322266 0.00966797 0.00322266 0.00322266 -0.0128906 -0.0257812 -0.0418945 -0.0418945 -0.0257812 -0.0128906 0 -0.00322266 0 0.00322266 -0.0128906 -0.0418945 -0.0257812 -0.0515625 -0.0418945 -0.0257812 -0.00322266 0.00322266 0 0.0193359 -0.0128906 -0.0257812 -0.0418945 -0.0418945 -0.0257812 -0.00644531 0.00966797 0 0.00966797 -0.00322266 -0.0225586 -0.0128906 -0.0418945 -0.0515625 -0.0483398 -0.0128906 0 0.00966797 0 0.00966797 -0.00644531 -0.0418945 -0.0322266 -0.0483398 -0.0257812 -0.00644531 0 0.00322266 0.00966797 -0.00322266 -0.0128906 -0.0257812 -0.0257812 -0.0418945 -0.0515625 -0.00644531 0 0.00966797 0.0225586 -0.00322266 -0.00644531 -0.0257812 -0.0257812 -0.0418945 -0.0257812 -0.0225586 0 0.00966797 0.0193359 0.00966797 -0.00322266 -0.0225586 -0.0483398 -0.0515625 -0.0257812 -0.0128906 0.00966797 0.00966797 0.00322266 -0.00322266 -0.0128906 -0.0322266 -0.0483398 -0.0483398 -0.0257812 -0.0128906 -0.00322266 0.00966797 0.00322266 0 0 -0.0418945 -0.0322266 -0.0483398 -0.0257812 -0.00644531 0 0.00322266 0.00966797 -0.00322266 -0.0128906 -0.0257812 -0.0257812 -0.0418945 -0.0515625 -0.00644531 0 0.00966797 0.0225586 -0.00322266 -0.00644531 -0.0257812 -0.0257812 -0.0418945 -0.0257812 -0.0225586 0 0.00966797 0.0193359 0.00966797 -0.00322266 -0.0225586 -0.0483398 -0.0515625 -0.0257812 -0.0128906 0.00966797 0.00966797 0.00322266 -0.00322266 -0.0128906 -0.0322266 -0.0483398 -0.0483398 -0.0257812 -0.0128906 -0.00322266 0.00966797 0.00322266 0 -0.00322266 -0.0418945 -0.0418945 -0.0483398 -0.0322266 -0.0128906 0.00966797 0.00322266 0.00966797 0.00322266 -0.00644531 -0.0257812 -0.0257812 -0.0418945 -0.0257812 -0.0257812 0 0 0.00966797 -0.00322266 -0.0128906 -0.0257812 -0.0418945 -0.0418945 -0.0322266 -0.0128906 -0.00322266 -0.00644531 0 -0.00322266 -0.00322266 -0.0257812 -0.0257812 -0.0257812 -0.0225586 -0.0128906 -0.0128906 -0.00644531 0.00322266 0 -0.0128906 -0.0257812 -0.0515625 -0.0418945 -0.0257812 -0.00644531 -0.00322266 0 0.00966797 0.00322266 0 -0.0418945 -0.0418945 -0.0483398 -0.0322266 -0.0128906 0.00966797 0.00322266 0.00966797 0.00322266 -0.00644531 -0.0257812 -0.0257812 -0.0418945 -0.0257812 -0.0257812 0 0 0.00966797 -0.00322266 -0.0128906 -0.0257812 -0.0418945 -0.0418945 -0.0322266 -0.0128906 -0.00322266 -0.00644531 0 -0.00322266 -0.00322266 -0.0257812 -0.0257812 -0.0257812 -0.0225586 -0.0128906 -0.0128906 -0.00644531 0.00322266 0 -0.0128906 -0.0257812 -0.0515625 -0.0418945 -0.0257812 -0.00644531 -0.00322266 0 0.00966797 0.00322266 -0.00644531 -0.0128906 -0.0257812 -0.0418945 -0.0418945 -0.0128906 -0.00322266 0 0.00966797 0.00322266 -0.00322266 -0.0128906 -0.0257812 -0.0257812 -0.0257812 -0.0128906 0 0.00322266 0.0193359 -0.00322266 -0.0128906 -0.0322266 -0.0418945 -0.0418945 -0.0257812 -0.0128906 -0.00322266 0.00322266 0 0.00322266 -0.0257812 -0.0418945 -0.0418945 -0.0257812 -0.0257812 -0.00644531 0.00322266 0 0.00322266 0.00966797 0 -0.0257812 -0.0644531 -0.0515625 -0.0257812 -0.0257812 -0.0128906 -0.00322266 0.00966797 0.00966797 0 -0.0128906 -0.0257812 -0.0418945 -0.0418945 -0.0128906 -0.00322266 0 0.00966797 0.00322266 -0.00322266 -0.0128906 -0.0257812 -0.0257812 -0.0257812 -0.0128906 0 0.00322266 0.0193359 -0.00322266 -0.0128906 -0.0322266 -0.0418945 -0.0418945 -0.0257812 -0.0128906 -0.00322266 0.00322266 0 0.00322266 -0.0257812 -0.0418945 -0.0418945 -0.0257812 -0.0257812 -0.00644531 0.00322266 0 0.00322266 0.00966797 0 -0.0257812 -0.0644531 -0.0515625 -0.0257812 -0.0257812 -0.0128906 -0.00322266 0.00966797 0.00966797 -0.00644531 -0.0418945 -0.0322266 -0.0322266 -0.0257812 -0.0225586 -0.0257812 0 0.0225586 0.0999023 0.0773437 0.0773437 0.0225586 0.0483398 -0.0418945 -0.183691 -0.228809 -0.177246 -0.0128906 0.0999023 0.0999023 0.0225586 0.0225586 0.0225586 -0.116016 -0.0418945 0 0.0193359 0.0999023 0.15791 0.0999023 -0.4125 -0.644531 -0.631641 -0.609082 -0.232031 0.125684 0.112793 -0.805664 -0.77666 -0.36416 0.657422 0.937793 0.844336 0.61875 0.512402 0.122461 -0.0515625 0.15791 0.309375 0 -0.0418945 -0.0322266 -0.0322266 -0.0257812 -0.0225586 -0.0257812 0 0.0225586 0.0999023 0.0773437 0.0773437 0.0225586 0.0483398 -0.0418945 -0.183691 -0.228809 -0.177246 -0.0128906 0.0999023 0.0999023 0.0225586 0.0225586 0.0225586 -0.116016 -0.0418945 0 0.0193359 0.0999023 0.15791 0.0999023 -0.4125 -0.644531 -0.631641 -0.609082 -0.232031 0.125684 0.112793 -0.805664 -0.77666 -0.36416 0.657422 0.937793 0.844336 0.61875 0.512402 0.122461 -0.0515625 0.15791 0.309375 -0.0128906 -0.77666 -0.46084 -0.31582 0.148242 0.203027 0.409277 0.0999023 0.0225586 0.0999023 0.228809 0.112793 0.0225586 -0.270703 -0.464062 -0.660645 -0.257812 0.319043 0.15791 -0.0580078 -0.712207 -0.747656 -0.128906 0.641309 1.04092 1.28262 0.431836 -0.232031 -0.470508 -0.0580078 0.112793 0.296484 0.66709 0.203027 -0.0805664 -0.20625 0.154687 -0.547852 -0.402832 -0.116016 -0.0805664 0.193359 0.164355 -0.093457 -0.0418945 0.112793 -0.0837891 -0.00322266 0.0451172 0.0386719 0 -0.77666 -0.46084 -0.31582 0.148242 0.203027 0.409277 0.0999023 0.0225586 0.0999023 0.228809 0.112793 0.0225586 -0.270703 -0.464062 -0.660645 -0.257812 0.319043 0.15791 -0.0580078 -0.712207 -0.747656 -0.128906 0.641309 1.04092 1.28262 0.431836 -0.232031 -0.470508 -0.0580078 0.112793 0.296484 0.66709 0.203027 -0.0805664 -0.20625 0.154687 -0.547852 -0.402832 -0.116016 -0.0805664 0.193359 0.164355 -0.093457 -0.0418945 0.112793 -0.0837891 -0.00322266 0.0451172 0.0386719 0.0483398 0.148242 0.154687 0.0225586 0 0.0773437 0.125684 0.203027 0.228809 0.203027 0.125684 0.141797 0.112793 -0.0128906 0.0612305 0.0773437 0.0902344 0.0999023 0.0773437 0.00322266 -0.0644531 -0.0805664 -0.0805664 -0.093457 -0.103125 -0.093457 -0.0999023 -0.0999023 -0.0837891 -0.0805664 -0.116016 -0.14502 -0.15791 -0.183691 -0.203027 -0.20625 -0.20625 -0.232031 -0.228809 -0.219141 -0.196582 -0.20625 -0.196582 -0.186914 -0.183691 -0.167578 -0.128906 -0.125684 -0.0805664 -0.0418945 0 0.148242 0.154687 0.0225586 0 0.0773437 0.125684 0.203027 0.228809 0.203027 0.125684 0.141797 0.112793 -0.0128906 0.0612305 0.0773437 0.0902344 0.0999023 0.0773437 0.00322266 -0.0644531 -0.0805664 -0.0805664 -0.093457 -0.103125 -0.093457 -0.0999023 -0.0999023 -0.0837891 -0.0805664 -0.116016 -0.14502 -0.15791 -0.183691 -0.203027 -0.20625 -0.20625 -0.232031 -0.228809 -0.219141 -0.196582 -0.20625 -0.196582 -0.186914 -0.183691 -0.167578 -0.128906 -0.125684 -0.0805664 -0.0418945 -0.0257812 -0.0644531 -0.0741211 -0.0644531 -0.0805664 -0.0128906 0 0.0225586 0.0483398 0.0483398 0.0225586 0.0225586 0.00322266 0 0 0 0.0290039 0.00966797 0.0225586 0.0290039 0.00966797 -0.0257812 -0.0128906 -0.0128906 -0.0257812 -0.0128906 -0.0257812 -0.0257812 -0.0257812 -0.0322266 -0.0483398 -0.0741211 -0.0644531 -0.0580078 -0.0418945 -0.0128906 0 0.00966797 0.00966797 -0.0128906 -0.00322266 -0.0128906 -0.0128906 0 0.0193359 0.0386719 0.0612305 0.0612305 0.0483398 0.0386719 0 -0.0644531 -0.0741211 -0.0644531 -0.0805664 -0.0128906 0 0.0225586 0.0483398 0.0483398 0.0225586 0.0225586 0.00322266 0 0 0 0.0290039 0.00966797 0.0225586 0.0290039 0.00966797 -0.0257812 -0.0128906 -0.0128906 -0.0257812 -0.0128906 -0.0257812 -0.0257812 -0.0257812 -0.0322266 -0.0483398 -0.0741211 -0.0644531 -0.0580078 -0.0418945 -0.0128906 0 0.00966797 0.00966797 -0.0128906 -0.00322266 -0.0128906 -0.0128906 0 0.0193359 0.0386719 0.0612305 0.0612305 0.0483398 0.0386719 0.0225586 0 -0.0225586 -0.0128906 0 0.0225586 0.0225586 0.0290039 0.0451172 0.0290039 0.0193359 -0.00644531 -0.0128906 -0.0257812 -0.0257812 -0.0128906 -0.0225586 -0.0257812 -0.0515625 -0.0515625 -0.0805664 -0.0483398 -0.0644531 -0.0837891 -0.0257812 -0.00644531 -0.00322266 -0.00644531 -0.00322266 -0.0257812 -0.0257812 -0.0515625 -0.0805664 -0.0837891 -0.0515625 -0.0418945 -0.0257812 -0.0225586 -0.0257812 -0.0257812 -0.0515625 -0.0515625 -0.0580078 -0.0837891 -0.0515625 -0.0515625 -0.0257812 -0.0128906 -0.0257812 -0.0257812 0 0 -0.0225586 -0.0128906 0 0.0225586 0.0225586 0.0290039 0.0451172 0.0290039 0.0193359 -0.00644531 -0.0128906 -0.0257812 -0.0257812 -0.0128906 -0.0225586 -0.0257812 -0.0515625 -0.0515625 -0.0805664 -0.0483398 -0.0644531 -0.0837891 -0.0257812 -0.00644531 -0.00322266 -0.00644531 -0.00322266 -0.0257812 -0.0257812 -0.0515625 -0.0805664 -0.0837891 -0.0515625 -0.0418945 -0.0257812 -0.0225586 -0.0257812 -0.0257812 -0.0515625 -0.0515625 -0.0580078 -0.0837891 -0.0515625 -0.0515625 -0.0257812 -0.0128906 -0.0257812 -0.0257812 -0.0418945 -0.0580078 -0.0515625 -0.0515625 -0.0418945 -0.0257812 -0.0225586 -0.0128906 -0.00644531 -0.0128906 -0.0418945 -0.0418945 -0.0257812 -0.0322266 -0.0257812 -0.0128906 -0.00322266 0.00966797 -0.00322266 0 -0.0128906 -0.0257812 -0.0257812 -0.0418945 -0.0418945 -0.0225586 0 -0.0128906 -0.00322266 -0.00322266 -0.0257812 -0.0418945 -0.0257812 -0.0483398 -0.0257812 -0.0225586 -0.00644531 -0.00322266 0.00322266 0.00966797 -0.0128906 -0.0257812 -0.0257812 -0.0257812 -0.0257812 -0.0225586 -0.00322266 0.00322266 0.00322266 -0.0257812 0 -0.0580078 -0.0515625 -0.0515625 -0.0418945 -0.0257812 -0.0225586 -0.0128906 -0.00644531 -0.0128906 -0.0418945 -0.0418945 -0.0257812 -0.0322266 -0.0257812 -0.0128906 -0.00322266 0.00966797 -0.00322266 0 -0.0128906 -0.0257812 -0.0257812 -0.0418945 -0.0418945 -0.0225586 0 -0.0128906 -0.00322266 -0.00322266 -0.0257812 -0.0418945 -0.0257812 -0.0483398 -0.0257812 -0.0225586 -0.00644531 -0.00322266 0.00322266 0.00966797 -0.0128906 -0.0257812 -0.0257812 -0.0257812 -0.0257812 -0.0225586 -0.00322266 0.00322266 0.00322266 -0.0257812 -0.0128906 -0.0257812 -0.0418945 -0.0322266 -0.0257812 -0.00644531 -0.00322266 0 0.00322266 0.00322266 -0.0225586 -0.0257812 -0.0225586 -0.0386719 -0.0257812 -0.0257812 0.00322266 0.00966797 0.0225586 0.00322266 -0.00322266 -0.0128906 -0.0257812 -0.0257812 -0.0257812 -0.00322266 0.00322266 0.00966797 0.00966797 -0.00322266 -0.0257812 -0.0257812 -0.0515625 -0.0257812 -0.0257812 -0.0128906 0.00966797 0.00966797 0.00966797 0 -0.0128906 -0.0257812 -0.0257812 -0.0483398 -0.0257812 -0.0128906 0.00966797 0.00966797 0.00966797 -0.00322266 0 -0.0257812 -0.0418945 -0.0322266 -0.0257812 -0.00644531 -0.00322266 0 0.00322266 0.00322266 -0.0225586 -0.0257812 -0.0225586 -0.0386719 -0.0257812 -0.0257812 0.00322266 0.00966797 0.0225586 0.00322266 -0.00322266 -0.0128906 -0.0257812 -0.0257812 -0.0257812 -0.00322266 0.00322266 0.00966797 0.00966797 -0.00322266 -0.0257812 -0.0257812 -0.0515625 -0.0257812 -0.0257812 -0.0128906 0.00966797 0.00966797 0.00966797 0 -0.0128906 -0.0257812 -0.0257812 -0.0483398 -0.0257812 -0.0128906 0.00966797 0.00966797 0.00966797 -0.00322266 -0.0128906 -0.0257812 -0.0257812 -0.0418945 -0.0257812 -0.0161133 0 0.0193359 0.0193359 -0.00322266 -0.0225586 -0.0418945 -0.0418945 -0.0483398 -0.0225586 -0.00644531 0.00966797 0.0193359 0.00966797 -0.00322266 -0.0257812 -0.0418945 -0.0418945 -0.0418945 -0.0257812 0 0.00322266 0.00322266 0 0 -0.0128906 -0.0418945 -0.0515625 -0.0418945 -0.0257812 -0.0225586 0 -0.00322266 0 -0.0128906 -0.0257812 -0.0418945 -0.0322266 -0.0418945 -0.0418945 -0.00644531 0.00322266 0 0.0193359 0 0 -0.0257812 -0.0257812 -0.0418945 -0.0257812 -0.0161133 0 0.0193359 0.0193359 -0.00322266 -0.0225586 -0.0418945 -0.0418945 -0.0483398 -0.0225586 -0.00644531 0.00966797 0.0193359 0.00966797 -0.00322266 -0.0257812 -0.0418945 -0.0418945 -0.0418945 -0.0257812 0 0.00322266 0.00322266 0 0 -0.0128906 -0.0418945 -0.0515625 -0.0418945 -0.0257812 -0.0225586 0 -0.00322266 0 -0.0128906 -0.0257812 -0.0418945 -0.0322266 -0.0418945 -0.0418945 -0.00644531 0.00322266 0 0.0193359 0 -0.00644531 -0.0418945 -0.0418945 -0.0257812 -0.0257812 -0.0225586 0 -0.00644531 0.0193359 0.00322266 -0.0128906 -0.0257812 -0.0418945 -0.0257812 -0.0128906 0.00322266 0.00966797 -0.0128906 -0.00644531 -0.00322266 -0.0128906 -0.0418945 -0.0257812 -0.0418945 -0.0257812 -0.00644531 0 0.00966797 0.0225586 0.00966797 -0.00322266 -0.0257812 -0.0386719 -0.0418945 -0.0257812 -0.00644531 -0.00644531 -0.00322266 0.00322266 0.00322266 -0.00644531 -0.0257812 -0.0515625 -0.0418945 -0.0257812 -0.0225586 -0.00322266 0.00322266 0.00966797 0.00322266 0 -0.0418945 -0.0418945 -0.0257812 -0.0257812 -0.0225586 0 -0.00644531 0.0193359 0.00322266 -0.0128906 -0.0257812 -0.0418945 -0.0257812 -0.0128906 0.00322266 0.00966797 -0.0128906 -0.00644531 -0.00322266 -0.0128906 -0.0418945 -0.0257812 -0.0418945 -0.0257812 -0.00644531 0 0.00966797 0.0225586 0.00966797 -0.00322266 -0.0257812 -0.0386719 -0.0418945 -0.0257812 -0.00644531 -0.00644531 -0.00322266 0.00322266 0.00322266 -0.00644531 -0.0257812 -0.0515625 -0.0418945 -0.0257812 -0.0225586 -0.00322266 0.00322266 0.00966797 0.00322266 -0.0257812 -0.0257812 -0.0257812 -0.0257812 -0.0257812 -0.00644531 0 0.00322266 0 -0.0128906 -0.00644531 -0.0322266 -0.0515625 -0.0418945 -0.0257812 -0.00644531 0 0 0.00966797 0.00966797 -0.0128906 -0.0257812 -0.0257812 -0.0257812 -0.0257812 -0.00644531 -0.00322266 0 0.00966797 0.00966797 -0.0128906 -0.0257812 -0.0483398 -0.0418945 -0.0257812 -0.0225586 0 0.0225586 0.00966797 0.00966797 -0.0128906 -0.0257812 -0.0257812 -0.0418945 -0.0257812 -0.0257812 0.00322266 0.0225586 0.0225586 0 0 -0.0257812 -0.0257812 -0.0257812 -0.0257812 -0.00644531 0 0.00322266 0 -0.0128906 -0.00644531 -0.0322266 -0.0515625 -0.0418945 -0.0257812 -0.00644531 0 0 0.00966797 0.00966797 -0.0128906 -0.0257812 -0.0257812 -0.0257812 -0.0257812 -0.00644531 -0.00322266 0 0.00966797 0.00966797 -0.0128906 -0.0257812 -0.0483398 -0.0418945 -0.0257812 -0.0225586 0 0.0225586 0.00966797 0.00966797 -0.0128906 -0.0257812 -0.0257812 -0.0418945 -0.0257812 -0.0257812 0.00322266 0.0225586 0.0225586 0 -0.0128906 -0.0257812 -0.0483398 -0.0483398 -0.0257812 -0.0225586 -0.00322266 0.00966797 0.0193359 0 -0.0128906 -0.0257812 -0.0418945 -0.0418945 -0.0225586 -0.00644531 -0.00322266 0.00322266 0.00966797 0.00322266 -0.00644531 -0.0418945 -0.0322266 -0.0515625 -0.0418945 -0.0128906 0 0.00966797 0.0225586 0.00322266 -0.0225586 -0.0418945 -0.0418945 -0.0386719 -0.0257812 -0.0128906 -0.00322266 -0.00322266 0.00966797 0.00966797 -0.0257812 -0.0418945 -0.0418945 -0.0483398 -0.0418945 -0.0225586 -0.00322266 -0.00644531 0.0225586 0.00966797 0 -0.0257812 -0.0483398 -0.0483398 -0.0257812 -0.0225586 -0.00322266 0.00966797 0.0193359 0 -0.0128906 -0.0257812 -0.0418945 -0.0418945 -0.0225586 -0.00644531 -0.00322266 0.00322266 0.00966797 0.00322266 -0.00644531 -0.0418945 -0.0322266 -0.0515625 -0.0418945 -0.0128906 0 0.00966797 0.0225586 0.00322266 -0.0225586 -0.0418945 -0.0418945 -0.0386719 -0.0257812 -0.0128906 -0.00322266 -0.00322266 0.00966797 0.00966797 -0.0257812 -0.0418945 -0.0418945 -0.0483398 -0.0418945 -0.0225586 -0.00322266 -0.00644531 0.0225586 0.00966797 -0.00644531 -0.0418945 -0.0418945 -0.0483398 -0.0257812 -0.0128906 0 0 0.00966797 0.00966797 -0.00644531 -0.0257812 -0.0418945 -0.0515625 -0.0257812 -0.0257812 0.00322266 0.00966797 0.0193359 0 -0.0128906 -0.0322266 -0.0418945 -0.0515625 -0.0257812 -0.0128906 -0.00322266 0.0128906 0.00322266 0 -0.0128906 -0.0418945 -0.0322266 -0.0257812 -0.0257812 -0.0128906 -0.00644531 0.00322266 0.00966797 0 -0.0128906 -0.0483398 -0.0418945 -0.0418945 -0.0257812 -0.00322266 -0.0128906 0.00322266 0 0.00322266 0 -0.0418945 -0.0418945 -0.0483398 -0.0257812 -0.0128906 0 0 0.00966797 0.00966797 -0.00644531 -0.0257812 -0.0418945 -0.0515625 -0.0257812 -0.0257812 0.00322266 0.00966797 0.0193359 0 -0.0128906 -0.0322266 -0.0418945 -0.0515625 -0.0257812 -0.0128906 -0.00322266 0.0128906 0.00322266 0 -0.0128906 -0.0418945 -0.0322266 -0.0257812 -0.0257812 -0.0128906 -0.00644531 0.00322266 0.00966797 0 -0.0128906 -0.0483398 -0.0418945 -0.0418945 -0.0257812 -0.00322266 -0.0128906 0.00322266 0 0.00322266 -0.0257812 -0.0257812 -0.0418945 -0.0257812 -0.0386719 -0.0257812 -0.00644531 0 0.0225586 0.00966797 -0.00644531 -0.0257812 -0.0257812 -0.0322266 -0.0322266 -0.0225586 -0.00322266 0.00966797 0 0.00966797 -0.0128906 -0.0257812 -0.0418945 -0.0418945 -0.0257812 -0.0128906 -0.00322266 0.00966797 0.00966797 0.00322266 -0.00322266 -0.0257812 -0.0515625 -0.0515625 -0.0257812 -0.00322266 0 0 0.0193359 0.00322266 -0.0128906 -0.0257812 -0.0418945 -0.0483398 -0.0257812 -0.0225586 -0.00322266 0.00322266 0.00966797 0.00966797 0 -0.0257812 -0.0418945 -0.0257812 -0.0386719 -0.0257812 -0.00644531 0 0.0225586 0.00966797 -0.00644531 -0.0257812 -0.0257812 -0.0322266 -0.0322266 -0.0225586 -0.00322266 0.00966797 0 0.00966797 -0.0128906 -0.0257812 -0.0418945 -0.0418945 -0.0257812 -0.0128906 -0.00322266 0.00966797 0.00966797 0.00322266 -0.00322266 -0.0257812 -0.0515625 -0.0515625 -0.0257812 -0.00322266 0 0 0.0193359 0.00322266 -0.0128906 -0.0257812 -0.0418945 -0.0483398 -0.0257812 -0.0225586 -0.00322266 0.00322266 0.00966797 0.00966797 -0.0128906 -0.0257812 -0.0257812 -0.0483398 -0.0418945 -0.0128906 0.00966797 0.00966797 0.00966797 -0.00644531 -0.0128906 -0.0322266 -0.0418945 -0.0483398 -0.0257812 -0.00644531 0.00966797 0.00966797 0.00966797 0 -0.0257812 -0.0418945 -0.0322266 -0.0418945 -0.0257812 -0.00322266 -0.00322266 0 0.0225586 0.00966797 -0.00644531 -0.0128906 -0.0257812 -0.0386719 -0.0257812 -0.0128906 -0.00322266 0.00322266 0.00966797 0.00966797 -0.0128906 -0.0128906 -0.0257812 -0.0515625 -0.0515625 -0.0418945 -0.0128906 -0.00322266 0.00322266 0 0 -0.0257812 -0.0257812 -0.0483398 -0.0418945 -0.0128906 0.00966797 0.00966797 0.00966797 -0.00644531 -0.0128906 -0.0322266 -0.0418945 -0.0483398 -0.0257812 -0.00644531 0.00966797 0.00966797 0.00966797 0 -0.0257812 -0.0418945 -0.0322266 -0.0418945 -0.0257812 -0.00322266 -0.00322266 0 0.0225586 0.00966797 -0.00644531 -0.0128906 -0.0257812 -0.0386719 -0.0257812 -0.0128906 -0.00322266 0.00322266 0.00966797 0.00966797 -0.0128906 -0.0128906 -0.0257812 -0.0515625 -0.0515625 -0.0418945 -0.0128906 -0.00322266 0.00322266 0 -0.00644531 -0.0322266 -0.0257812 -0.0322266 -0.0257812 -0.0257812 0 0 0.00966797 -0.00644531 -0.00322266 -0.0257812 -0.0483398 -0.0515625 -0.0257812 -0.0257812 0 0.00966797 0.0225586 0 -0.0128906 -0.0418945 -0.0322266 -0.0418945 -0.0257812 -0.00644531 -0.00322266 0.00322266 0.00966797 0.00322266 -0.0128906 -0.0257812 -0.0322266 -0.0418945 -0.0257812 -0.0128906 -0.00322266 0.00966797 0.0225586 0.00966797 -0.00644531 -0.0257812 -0.0257812 -0.0418945 -0.0257812 -0.00644531 0.00322266 0 0.00966797 0.00966797 0 -0.0322266 -0.0257812 -0.0322266 -0.0257812 -0.0257812 0 0 0.00966797 -0.00644531 -0.00322266 -0.0257812 -0.0483398 -0.0515625 -0.0257812 -0.0257812 0 0.00966797 0.0225586 0 -0.0128906 -0.0418945 -0.0322266 -0.0418945 -0.0257812 -0.00644531 -0.00322266 0.00322266 0.00966797 0.00322266 -0.0128906 -0.0257812 -0.0322266 -0.0418945 -0.0257812 -0.0128906 -0.00322266 0.00966797 0.0225586 0.00966797 -0.00644531 -0.0257812 -0.0257812 -0.0418945 -0.0257812 -0.00644531 0.00322266 0 0.00966797 0.00966797 -0.00322266 -0.0257812 -0.0322266 -0.0418945 -0.0257812 -0.0128906 -0.00322266 0.00966797 0.0225586 0.0193359 -0.0225586 -0.0322266 -0.0418945 -0.0418945 -0.0257812 -0.0257812 -0.00322266 -0.00322266 0.0193359 0.00322266 -0.0128906 -0.0257812 -0.0257812 -0.0483398 -0.0418945 -0.0128906 -0.0128906 -0.0128906 0.0225586 0 -0.00644531 -0.0257812 -0.0418945 -0.0418945 -0.0418945 -0.0225586 0 0 0.0193359 0.00966797 -0.00322266 -0.0257812 -0.0418945 -0.0483398 -0.0418945 -0.0128906 -0.00644531 0.00966797 0.0193359 -0.00322266 0 -0.0257812 -0.0322266 -0.0418945 -0.0257812 -0.0128906 -0.00322266 0.00966797 0.0225586 0.0193359 -0.0225586 -0.0322266 -0.0418945 -0.0418945 -0.0257812 -0.0257812 -0.00322266 -0.00322266 0.0193359 0.00322266 -0.0128906 -0.0257812 -0.0257812 -0.0483398 -0.0418945 -0.0128906 -0.0128906 -0.0128906 0.0225586 0 -0.00644531 -0.0257812 -0.0418945 -0.0418945 -0.0418945 -0.0225586 0 0 0.0193359 0.00966797 -0.00322266 -0.0257812 -0.0418945 -0.0483398 -0.0418945 -0.0128906 -0.00644531 0.00966797 0.0193359 -0.00322266 -0.00322266 -0.0257812 -0.0418945 -0.0418945 -0.0257812 -0.0225586 -0.00322266 -0.00644531 0.0225586 0.00966797 -0.00322266 -0.0257812 -0.0257812 -0.0644531 -0.0483398 -0.0128906 0 0.00966797 0.0225586 0.00966797 -0.0128906 -0.0418945 -0.0257812 -0.0515625 -0.0257812 -0.00644531 -0.00322266 0 0.0225586 0.0193359 -0.00644531 -0.0225586 -0.0225586 -0.0418945 -0.0418945 -0.00644531 0.00966797 0.00966797 0.0193359 0.0225586 0.00966797 -0.0128906 -0.0418945 -0.0483398 -0.0322266 -0.0257812 -0.00644531 0.0193359 0.00966797 0.00322266 0 -0.0257812 -0.0418945 -0.0418945 -0.0257812 -0.0225586 -0.00322266 -0.00644531 0.0225586 0.00966797 -0.00322266 -0.0257812 -0.0257812 -0.0644531 -0.0483398 -0.0128906 0 0.00966797 0.0225586 0.00966797 -0.0128906 -0.0418945 -0.0257812 -0.0515625 -0.0257812 -0.00644531 -0.00322266 0 0.0225586 0.0193359 -0.00644531 -0.0225586 -0.0225586 -0.0418945 -0.0418945 -0.00644531 0.00966797 0.00966797 0.0193359 0.0225586 0.00966797 -0.0128906 -0.0418945 -0.0483398 -0.0322266 -0.0257812 -0.00644531 0.0193359 0.00966797 0.00322266 0 -0.0418945 -0.0418945 -0.0483398 -0.0515625 -0.00322266 -0.00322266 0 0.0193359 0.0193359 -0.00644531 -0.0257812 -0.0418945 -0.0515625 -0.0418945 -0.0257812 -0.0225586 0.00322266 0.0193359 0.00966797 -0.00644531 -0.0257812 -0.0257812 -0.0483398 -0.0418945 -0.0128906 -0.0257812 -0.0128906 0.0225586 0.00966797 -0.00322266 -0.0257812 -0.0418945 -0.0515625 -0.0483398 -0.0257812 -0.0128906 0 0.0193359 0.00966797 -0.0128906 -0.0257812 -0.0418945 -0.0483398 -0.0418945 -0.0257812 -0.0128906 0.00966797 0.0225586 0.00966797 0 -0.0418945 -0.0418945 -0.0483398 -0.0515625 -0.00322266 -0.00322266 0 0.0193359 0.0193359 -0.00644531 -0.0257812 -0.0418945 -0.0515625 -0.0418945 -0.0257812 -0.0225586 0.00322266 0.0193359 0.00966797 -0.00644531 -0.0257812 -0.0257812 -0.0483398 -0.0418945 -0.0128906 -0.0257812 -0.0128906 0.0225586 0.00966797 -0.00322266 -0.0257812 -0.0418945 -0.0515625 -0.0483398 -0.0257812 -0.0128906 0 0.0193359 0.00966797 -0.0128906 -0.0257812 -0.0418945 -0.0483398 -0.0418945 -0.0257812 -0.0128906 0.00966797 0.0225586 0.00966797 -0.00322266 -0.0257812 -0.0257812 -0.0418945 -0.0418945 -0.0322266 -0.00322266 0.00322266 0.0193359 0.00966797 -0.00322266 -0.0128906 -0.0257812 -0.0483398 -0.0515625 -0.0257812 -0.0128906 -0.00644531 0.00966797 0.00966797 0.00322266 -0.0257812 -0.0418945 -0.0515625 -0.0418945 -0.0225586 -0.00644531 0.00322266 0.00966797 0.00966797 -0.00644531 -0.0257812 -0.0483398 -0.0483398 -0.0322266 -0.0257812 -0.00644531 -0.00644531 0.00966797 0.00966797 0 -0.0225586 -0.0257812 -0.0418945 -0.0418945 -0.0257812 -0.0128906 0 0 0.00966797 0 -0.0257812 -0.0257812 -0.0418945 -0.0418945 -0.0322266 -0.00322266 0.00322266 0.0193359 0.00966797 -0.00322266 -0.0128906 -0.0257812 -0.0483398 -0.0515625 -0.0257812 -0.0128906 -0.00644531 0.00966797 0.00966797 0.00322266 -0.0257812 -0.0418945 -0.0515625 -0.0418945 -0.0225586 -0.00644531 0.00322266 0.00966797 0.00966797 -0.00644531 -0.0257812 -0.0483398 -0.0483398 -0.0322266 -0.0257812 -0.00644531 -0.00644531 0.00966797 0.00966797 0 -0.0225586 -0.0257812 -0.0418945 -0.0418945 -0.0257812 -0.0128906 0 0 0.00966797 0.00966797 -0.00644531 -0.0257812 -0.0515625 -0.0515625 -0.0257812 -0.0128906 0.00322266 0.00966797 0.00966797 0 -0.0257812 -0.0257812 -0.0483398 -0.0418945 -0.0225586 -0.00322266 0 0.00966797 0.00966797 0.00966797 -0.0257812 -0.0386719 -0.0515625 -0.0418945 -0.0257812 -0.00322266 0.00966797 0.0193359 0.00966797 -0.00322266 -0.0225586 -0.0418945 -0.0483398 -0.0515625 -0.0257812 -0.00322266 0 0.00322266 0.0193359 0.00322266 -0.0128906 -0.0483398 -0.0257812 -0.0322266 -0.0257812 -0.00644531 -0.00322266 0.0225586 0.00966797 0 