0.00322266 -0.0128906 -0.0418945 -0.0418945 -0.0483398 -0.0257812 -0.00644531 0.0128906 0.0225586 0.00966797 0 -0.0128906 -0.0515625 -0.0418945 -0.0483398 -0.0257812 -0.0128906 -0.00322266 0.0193359 0.00966797 0 -0.0128906 -0.0257812 -0.0483398 -0.0418945 -0.0257812 -0.0225586 0 0.0193359 0.00966797 -0.00644531 -0.0225586 -0.0418945 -0.0515625 -0.0515625 -0.0418945 -0.0128906 0 0.0193359 0.00966797 0 -0.0128906 -0.0257812 -0.0483398 -0.0418945 -0.0257812 -0.0257812 0 0.0225586 0.0225586 -0.00322266 -0.0257812 -0.0257812 -0.0483398 -0.0483398 -0.0257812 -0.0128906 0.00322266 0.0225586 0.0225586 -0.00322266 -0.0128906 -0.0257812 -0.0515625 -0.0547852 -0.0225586 -0.0128906 0.0193359 0.0290039 0 -0.0128906 -0.0257812 -0.0418945 -0.0515625 -0.0515625 -0.0257812 -0.0128906 0 0.0225586 0.0225586 -0.00322266 -0.00322266 -0.0418945 -0.0418945 -0.0418945 -0.0418945 -0.00644531 0.0193359 0.00322266 0.00966797 -0.00322266 -0.0128906 -0.0322266 -0.0483398 -0.0515625 -0.0418945 -0.00644531 0.00966797 0 0 -0.00322266 -0.0257812 -0.0257812 -0.0483398 -0.0483398 -0.0257812 -0.0128906 0.00322266 0.0225586 0.0225586 -0.00322266 -0.0128906 -0.0257812 -0.0515625 -0.0547852 -0.0225586 -0.0128906 0.0193359 0.0290039 0 -0.0128906 -0.0257812 -0.0418945 -0.0515625 -0.0515625 -0.0257812 -0.0128906 0 0.0225586 0.0225586 -0.00322266 -0.00322266 -0.0418945 -0.0418945 -0.0418945 -0.0418945 -0.00644531 0.0193359 0.00322266 0.00966797 -0.00322266 -0.0128906 -0.0322266 -0.0483398 -0.0515625 -0.0418945 -0.00644531 0.00966797 0 0.0225586 -0.00644531 -0.0257812 -0.0418945 -0.0515625 -0.0322266 -0.0225586 -0.0128906 0.00322266 0.00966797 0 0 -0.0128906 -0.0257812 -0.0483398 -0.0547852 -0.0257812 -0.0128906 0.00966797 0.00966797 0.0128906 0.00322266 -0.00644531 -0.0257812 -0.0483398 -0.0483398 -0.0257812 -0.00644531 0 0.00966797 0.0128906 0.00322266 0 -0.0322266 -0.0483398 -0.0515625 -0.0418945 -0.0257812 0 0.0225586 0.0225586 0.00966797 -0.0225586 -0.0257812 -0.0483398 -0.0257812 -0.0128906 -0.00322266 0 0.00966797 0 -0.00644531 -0.0257812 -0.0418945 -0.0515625 -0.0322266 -0.0225586 -0.0128906 0.00322266 0.00966797 0 0 -0.0128906 -0.0257812 -0.0483398 -0.0547852 -0.0257812 -0.0128906 0.00966797 0.00966797 0.0128906 0.00322266 -0.00644531 -0.0257812 -0.0483398 -0.0483398 -0.0257812 -0.00644531 0 0.00966797 0.0128906 0.00322266 0 -0.0322266 -0.0483398 -0.0515625 -0.0418945 -0.0257812 0 0.0225586 0.0225586 0.00966797 -0.0225586 -0.0257812 -0.0483398 -0.0257812 -0.0128906 -0.00322266 0 0.00966797 0.00322266 -0.00322266 -0.0128906 -0.0257812 -0.0418945 -0.0418945 -0.0128906 -0.0225586 -0.0128906 0 0.00966797 0 -0.00644531 -0.0257812 -0.0322266 -0.0418945 -0.0257812 -0.0128906 0 0.0225586 0.00966797 0 -0.0225586 -0.0257812 -0.0515625 -0.0515625 -0.0322266 -0.0128906 -0.00644531 0 0.00966797 0 -0.0128906 -0.0257812 -0.0418945 -0.0418945 -0.0257812 -0.0225586 0.00322266 0.0225586 0.0193359 -0.00322266 -0.0225586 -0.0322266 -0.0418945 -0.0483398 -0.0418945 -0.0128906 0 0.0193359 0 -0.00322266 -0.0128906 -0.0257812 -0.0418945 -0.0418945 -0.0128906 -0.0225586 -0.0128906 0 0.00966797 0 -0.00644531 -0.0257812 -0.0322266 -0.0418945 -0.0257812 -0.0128906 0 0.0225586 0.00966797 0 -0.0225586 -0.0257812 -0.0515625 -0.0515625 -0.0322266 -0.0128906 -0.00644531 0 0.00966797 0 -0.0128906 -0.0257812 -0.0418945 -0.0418945 -0.0257812 -0.0225586 0.00322266 0.0225586 0.0193359 -0.00322266 -0.0225586 -0.0322266 -0.0418945 -0.0483398 -0.0418945 -0.0128906 0 0.0193359 0.0225586 -0.00322266 -0.0128906 -0.0418945 -0.0580078 -0.0418945 -0.0515625 -0.0225586 0.00322266 0.00966797 0.00966797 0.00322266 -0.00644531 -0.0257812 -0.0322266 -0.0418945 -0.0257812 -0.0225586 0.00966797 0.0225586 0.0225586 -0.00322266 -0.0128906 -0.0418945 -0.0418945 -0.0483398 -0.0257812 -0.00644531 0.0193359 0.0225586 0.00966797 0.00322266 -0.00322266 -0.0257812 -0.0483398 -0.0322266 -0.0225586 -0.00322266 0 0.00966797 0.00322266 -0.00644531 -0.00322266 -0.0257812 -0.0418945 -0.0418945 -0.0257812 -0.0128906 0.00322266 0.0193359 0 -0.00322266 -0.0128906 -0.0418945 -0.0580078 -0.0418945 -0.0515625 -0.0225586 0.00322266 0.00966797 0.00966797 0.00322266 -0.00644531 -0.0257812 -0.0322266 -0.0418945 -0.0257812 -0.0225586 0.00966797 0.0225586 0.0225586 -0.00322266 -0.0128906 -0.0418945 -0.0418945 -0.0483398 -0.0257812 -0.00644531 0.0193359 0.0225586 0.00966797 0.00322266 -0.00322266 -0.0257812 -0.0483398 -0.0322266 -0.0225586 -0.00322266 0 0.00966797 0.00322266 -0.00644531 -0.00322266 -0.0257812 -0.0418945 -0.0418945 -0.0257812 -0.0128906 0.00322266 0.0193359 0.0225586 0.00322266 -0.0128906 -0.0322266 -0.0483398 -0.0418945 -0.0257812 -0.00644531 0.00322266 0.00966797 0.00966797 0.00322266 -0.0128906 -0.0257812 -0.0483398 -0.0515625 -0.0257812 -0.0257812 -0.00322266 0.00322266 0.00322266 -0.00644531 -0.00644531 -0.0483398 -0.0515625 -0.0418945 -0.0257812 -0.0128906 0.00966797 0.00322266 0.00966797 0 -0.0225586 -0.0257812 -0.0257812 -0.0515625 -0.0515625 -0.0225586 0 0.0193359 0.00966797 0 -0.0128906 -0.0257812 -0.0483398 -0.0515625 -0.0257812 -0.0128906 0.00966797 0.00322266 0 0.00322266 -0.0128906 -0.0322266 -0.0483398 -0.0418945 -0.0257812 -0.00644531 0.00322266 0.00966797 0.00966797 0.00322266 -0.0128906 -0.0257812 -0.0483398 -0.0515625 -0.0257812 -0.0257812 -0.00322266 0.00322266 0.00322266 -0.00644531 -0.00644531 -0.0483398 -0.0515625 -0.0418945 -0.0257812 -0.0128906 0.00966797 0.00322266 0.00966797 0 -0.0225586 -0.0257812 -0.0257812 -0.0515625 -0.0515625 -0.0225586 0 0.0193359 0.00966797 0 -0.0128906 -0.0257812 -0.0483398 -0.0515625 -0.0257812 -0.0128906 0.00966797 0.00322266 0 -0.00322266 -0.0225586 -0.0418945 -0.0257812 -0.0257812 -0.0257812 -0.0257812 0 0.0225586 0.00966797 0 -0.0128906 -0.0257812 -0.0515625 -0.0515625 -0.0257812 -0.0128906 -0.00322266 0.00966797 0.00966797 0.00322266 -0.0128906 -0.0322266 -0.0515625 -0.0418945 -0.0257812 -0.00644531 0 0.00966797 0.00966797 0 -0.0128906 -0.0257812 -0.0386719 -0.0418945 -0.0257812 -0.0257812 0.00322266 0.00966797 0.00966797 -0.00322266 -0.0128906 -0.0257812 -0.0257812 -0.0322266 -0.0257812 -0.00644531 0.00322266 0.00966797 0 -0.00322266 -0.0225586 -0.0418945 -0.0257812 -0.0257812 -0.0257812 -0.0257812 0 0.0225586 0.00966797 0 -0.0128906 -0.0257812 -0.0515625 -0.0515625 -0.0257812 -0.0128906 -0.00322266 0.00966797 0.00966797 0.00322266 -0.0128906 -0.0322266 -0.0515625 -0.0418945 -0.0257812 -0.00644531 0 0.00966797 0.00966797 0 -0.0128906 -0.0257812 -0.0386719 -0.0418945 -0.0257812 -0.0257812 0.00322266 0.00966797 0.00966797 -0.00322266 -0.0128906 -0.0257812 -0.0257812 -0.0322266 -0.0257812 -0.00644531 0.00322266 0.00966797 0.00966797 0 -0.0225586 -0.0257812 -0.0418945 -0.0257812 -0.0257812 -0.0128906 -0.00322266 0.00322266 0.00322266 -0.00322266 -0.00644531 -0.0161133 -0.0257812 -0.0483398 -0.0257812 -0.0225586 0.00322266 0.0225586 0.00966797 0 -0.00644531 -0.0257812 -0.0418945 -0.0418945 -0.0257812 -0.0225586 0.00966797 0.0193359 0.0193359 0.00322266 -0.0225586 -0.0322266 -0.0418945 -0.0418945 -0.0257812 -0.00322266 0 0.00966797 0.00966797 0 -0.0128906 -0.0257812 -0.0418945 -0.0257812 -0.0257812 -0.0128906 -0.00322266 0.00966797 0 0 -0.0225586 -0.0257812 -0.0418945 -0.0257812 -0.0257812 -0.0128906 -0.00322266 0.00322266 0.00322266 -0.00322266 -0.00644531 -0.0161133 -0.0257812 -0.0483398 -0.0257812 -0.0225586 0.00322266 0.0225586 0.00966797 0 -0.00644531 -0.0257812 -0.0418945 -0.0418945 -0.0257812 -0.0225586 0.00966797 0.0193359 0.0193359 0.00322266 -0.0225586 -0.0322266 -0.0418945 -0.0418945 -0.0257812 -0.00322266 0 0.00966797 0.00966797 0 -0.0128906 -0.0257812 -0.0418945 -0.0257812 -0.0257812 -0.0128906 -0.00322266 0.00966797 0 -0.00322266 -0.0128906 -0.0128906 -0.0418945 -0.0257812 -0.0418945 -0.0128906 0 0.00966797 0.0193359 -0.00322266 -0.0128906 -0.0418945 -0.0418945 -0.0418945 -0.0257812 -0.0128906 0.00322266 0.00322266 0 0 -0.00644531 -0.0257812 -0.0322266 -0.0418945 -0.0257812 -0.0225586 -0.00322266 0 0 -0.0128906 -0.0225586 -0.0257812 -0.0322266 -0.0322266 -0.0257812 -0.00322266 0.00966797 0.00322266 -0.00322266 -0.00644531 -0.0257812 -0.0322266 -0.0418945 -0.0418945 -0.0257812 -0.0128906 0.00322266 0.00966797 0 -0.00322266 -0.0128906 -0.0128906 -0.0418945 -0.0257812 -0.0418945 -0.0128906 0 0.00966797 0.0193359 -0.00322266 -0.0128906 -0.0418945 -0.0418945 -0.0418945 -0.0257812 -0.0128906 0.00322266 0.00322266 0 0 -0.00644531 -0.0257812 -0.0322266 -0.0418945 -0.0257812 -0.0225586 -0.00322266 0 0 -0.0128906 -0.0225586 -0.0257812 -0.0322266 -0.0322266 -0.0257812 -0.00322266 0.00966797 0.00322266 -0.00322266 -0.00644531 -0.0257812 -0.0322266 -0.0418945 -0.0418945 -0.0257812 -0.0128906 0.00322266 0.00966797 -0.00322266 -0.00644531 -0.0225586 -0.0418945 -0.0515625 -0.0418945 -0.0257812 -0.0225586 -0.00322266 0 0 0 -0.0128906 -0.0257812 -0.0418945 -0.0418945 -0.0257812 -0.0128906 0.0225586 0.00322266 0 -0.00322266 -0.0128906 -0.0257812 -0.0418945 -0.0257812 -0.0257812 -0.0128906 -0.00322266 0.00966797 0.00966797 -0.00322266 -0.0128906 -0.0257812 -0.0418945 -0.0483398 -0.0322266 -0.0225586 -0.00322266 0.0225586 0.0193359 0.00322266 -0.0128906 -0.0322266 -0.0322266 -0.0418945 -0.0257812 -0.0128906 -0.00322266 0.00322266 0 -0.00644531 -0.0225586 -0.0418945 -0.0515625 -0.0418945 -0.0257812 -0.0225586 -0.00322266 0 0 0 -0.0128906 -0.0257812 -0.0418945 -0.0418945 -0.0257812 -0.0128906 0.0225586 0.00322266 0 -0.00322266 -0.0128906 -0.0257812 -0.0418945 -0.0257812 -0.0257812 -0.0128906 -0.00322266 0.00966797 0.00966797 -0.00322266 -0.0128906 -0.0257812 -0.0418945 -0.0483398 -0.0322266 -0.0225586 -0.00322266 0.0225586 0.0193359 0.00322266 -0.0128906 -0.0322266 -0.0322266 -0.0418945 -0.0257812 -0.0128906 -0.00322266 0.00322266 0 -0.00322266 -0.00322266 -0.0257812 -0.0418945 -0.0418945 -0.0257812 -0.0128906 -0.00644531 0.00966797 0.00966797 0.00322266 -0.00644531 -0.0418945 -0.0418945 -0.0418945 -0.0257812 -0.0128906 0.0193359 0.0128906 0.00322266 -0.00322266 -0.00644531 -0.0257812 -0.0418945 -0.0418945 -0.0257812 -0.0257812 0 0.00966797 0.00322266 0 -0.0128906 -0.0225586 -0.0257812 -0.0257812 -0.0257812 -0.0257812 -0.00644531 0.00322266 0.0386719 0.0225586 0.00966797 -0.0128906 -0.0418945 -0.0515625 -0.0257812 -0.0322266 -0.0418945 -0.0225586 0 -0.00322266 -0.00322266 -0.0257812 -0.0418945 -0.0418945 -0.0257812 -0.0128906 -0.00644531 0.00966797 0.00966797 0.00322266 -0.00644531 -0.0418945 -0.0418945 -0.0418945 -0.0257812 -0.0128906 0.0193359 0.0128906 0.00322266 -0.00322266 -0.00644531 -0.0257812 -0.0418945 -0.0418945 -0.0257812 -0.0257812 0 0.00966797 0.00322266 0 -0.0128906 -0.0225586 -0.0257812 -0.0257812 -0.0257812 -0.0257812 -0.00644531 0.00322266 0.0386719 0.0225586 0.00966797 -0.0128906 -0.0418945 -0.0515625 -0.0257812 -0.0322266 -0.0418945 -0.0225586 -0.00322266 -0.00322266 -0.0257812 0.0386719 -0.00644531 0.0386719 0.0225586 -0.0128906 -0.0418945 -0.0418945 -0.0418945 -0.0257812 -0.0257812 -0.0515625 -0.0483398 -0.0257812 -0.0322266 -0.0225586 -0.0257812 -0.0418945 -0.0128906 -0.0128906 0.00322266 -0.00644531 -0.00644531 0.0451172 0.0773437 0.0999023 -0.0225586 -0.0483398 -0.0257812 0.0966797 0.0483398 -0.0257812 -0.0418945 -0.0128906 -0.0128906 -0.0999023 -0.0580078 0.00966797 0.122461 0.215918 0.26748 0.148242 -0.0225586 -0.183691 -0.286816 -0.264258 -0.196582 -0.116016 0 -0.00322266 -0.0257812 0.0386719 -0.00644531 0.0386719 0.0225586 -0.0128906 -0.0418945 -0.0418945 -0.0418945 -0.0257812 -0.0257812 -0.0515625 -0.0483398 -0.0257812 -0.0322266 -0.0225586 -0.0257812 -0.0418945 -0.0128906 -0.0128906 0.00322266 -0.00644531 -0.00644531 0.0451172 0.0773437 0.0999023 -0.0225586 -0.0483398 -0.0257812 0.0966797 0.0483398 -0.0257812 -0.0418945 -0.0128906 -0.0128906 -0.0999023 -0.0580078 0.00966797 0.122461 0.215918 0.26748 0.148242 -0.0225586 -0.183691 -0.286816 -0.264258 -0.196582 -0.116016 -0.0805664 -0.0580078 -0.0644531 -0.0805664 -0.0322266 -0.0257812 0.00966797 0.0225586 0.0225586 0.0386719 0.0225586 -0.0128906 -0.0257812 -0.0805664 -0.0257812 0.00966797 -0.0257812 0.0483398 0.0999023 0.360937 0.592969 0.406055 0.193359 -0.0257812 -0.20625 -0.335156 -0.335156 -0.248145 -0.15791 -0.15791 -0.128906 -0.0741211 0.193359 0.215918 0.148242 0.0805664 -0.0515625 -0.232031 -0.270703 -0.196582 -0.183691 -0.0580078 -0.0225586 0.0708984 0.0612305 0.0999023 0.0999023 0.122461 0.0612305 0.0225586 0 -0.0580078 -0.0644531 -0.0805664 -0.0322266 -0.0257812 0.00966797 0.0225586 0.0225586 0.0386719 0.0225586 -0.0128906 -0.0257812 -0.0805664 -0.0257812 0.00966797 -0.0257812 0.0483398 0.0999023 0.360937 0.592969 0.406055 0.193359 -0.0257812 -0.20625 -0.335156 -0.335156 -0.248145 -0.15791 -0.15791 -0.128906 -0.0741211 0.193359 0.215918 0.148242 0.0805664 -0.0515625 -0.232031 -0.270703 -0.196582 -0.183691 -0.0580078 -0.0225586 0.0708984 0.0612305 0.0999023 0.0999023 0.122461 0.0612305 0.0225586 -0.0805664 -0.167578 -0.193359 -0.116016 -0.0741211 0.0612305 0.235254 0.61875 0.61875 0.370605 -0.196582 -0.470508 -0.660645 -0.563965 -0.286816 -0.15791 -0.0805664 0.0225586 0.0773437 0.0612305 0.00966797 -0.0257812 0.00966797 -0.0257812 -0.0257812 -0.103125 -0.151465 -0.15791 -0.128906 -0.0741211 -0.0805664 -0.0515625 -0.0515625 -0.0128906 0.0902344 0.193359 0.244922 0.125684 0.0773437 -0.0257812 -0.103125 -0.103125 -0.0257812 0.0225586 0.154687 0.193359 0.203027 0.164355 0.125684 0.154687 0 -0.167578 -0.193359 -0.116016 -0.0741211 0.0612305 0.235254 0.61875 0.61875 0.370605 -0.196582 -0.470508 -0.660645 -0.563965 -0.286816 -0.15791 -0.0805664 0.0225586 0.0773437 0.0612305 0.00966797 -0.0257812 0.00966797 -0.0257812 -0.0257812 -0.103125 -0.151465 -0.15791 -0.128906 -0.0741211 -0.0805664 -0.0515625 -0.0515625 -0.0128906 0.0902344 0.193359 0.244922 0.125684 0.0773437 -0.0257812 -0.103125 -0.103125 -0.0257812 0.0225586 0.154687 0.193359 0.203027 0.164355 0.125684 0.154687 0.0225586 -0.10957 -0.232031 -0.25459 -0.135352 0.0547852 0.228809 0.235254 0.122461 0.0386719 -0.0322266 -0.0805664 -0.0805664 -0.0644531 0.0193359 0.132129 0.141797 0.0483398 -0.128906 -0.128906 -0.103125 -0.093457 -0.0257812 -0.00644531 0.0225586 0.0805664 0.0999023 0.112793 0.0612305 -0.00322266 -0.0805664 -0.167578 -0.203027 -0.25459 -0.15791 -0.0128906 0.00966797 -0.0225586 -0.00322266 -0.0257812 -0.103125 -0.0644531 -0.00644531 -0.0257812 -0.0644531 -0.116016 -0.0805664 -0.14502 -0.0257812 -0.0225586 0 -0.10957 -0.232031 -0.25459 -0.135352 0.0547852 0.228809 0.235254 0.122461 0.0386719 -0.0322266 -0.0805664 -0.0805664 -0.0644531 0.0193359 0.132129 0.141797 0.0483398 -0.128906 -0.128906 -0.103125 -0.093457 -0.0257812 -0.00644531 0.0225586 0.0805664 0.0999023 0.112793 0.0612305 -0.00322266 -0.0805664 -0.167578 -0.203027 -0.25459 -0.15791 -0.0128906 0.00966797 -0.0225586 -0.00322266 -0.0257812 -0.103125 -0.0644531 -0.00644531 -0.0257812 -0.0644531 -0.116016 -0.0805664 -0.14502 -0.0257812 -0.0225586 -0.0225586 -0.0580078 0.0225586 0.154687 0.26748 0.331934 0.0386719 -0.248145 -0.505957 -0.46084 -0.232031 -0.103125 -0.0805664 -0.0580078 0.00966797 0.0999023 0.386719 0.409277 0.30293 0.00966797 -0.335156 -0.496289 -0.290039 -0.103125 -0.0547852 -0.0515625 -0.0418945 0.0225586 0.0386719 0.180469 0.225586 0.457617 0.25459 -0.0741211 -0.286816 -0.373828 -0.203027 -0.103125 0 0.0225586 0.0451172 0.0225586 0.00322266 -0.00644531 0 0.203027 0.283594 0.141797 -0.0644531 -0.20625 0 -0.0580078 0.0225586 0.154687 0.26748 0.331934 0.0386719 -0.248145 -0.505957 -0.46084 -0.232031 -0.103125 -0.0805664 -0.0580078 0.00966797 0.0999023 0.386719 0.409277 0.30293 0.00966797 -0.335156 -0.496289 -0.290039 -0.103125 -0.0547852 -0.0515625 -0.0418945 0.0225586 0.0386719 0.180469 0.225586 0.457617 0.25459 -0.0741211 -0.286816 -0.373828 -0.203027 -0.103125 0 0.0225586 0.0451172 0.0225586 0.00322266 -0.00644531 0 0.203027 0.283594 0.141797 -0.0644531 -0.20625 -0.219141 -0.128906 -0.0805664 -0.0999023 -0.0837891 -0.0644531 -0.0418945 0.0483398 0.180469 0.180469 0.309375 0.296484 0.141797 0.0999023 -0.167578 -0.128906 0.399609 0.924902 0.46084 -0.20625 -0.866895 -0.866895 -0.464062 0.628418 1.10859 1.54043 0.87334 0.592969 -0.52207 0.592969 0.0483398 0.141797 -0.093457 0.825 1.29873 1.63389 1.63389 -0.299707 -1.65 -1.65 -1.65 0.225586 1.43086 1.07637 0.834668 -1.65 -1.65 -1.65 0.203027 0.538184 0 -0.128906 -0.0805664 -0.0999023 -0.0837891 -0.0644531 -0.0418945 0.0483398 0.180469 0.180469 0.309375 0.296484 0.141797 0.0999023 -0.167578 -0.128906 0.399609 0.924902 0.46084 -0.20625 -0.866895 -0.866895 -0.464062 0.628418 1.10859 1.54043 0.87334 0.592969 -0.52207 0.592969 0.0483398 0.141797 -0.093457 0.825 1.29873 1.63389 1.63389 -0.299707 -1.65 -1.65 -1.65 0.225586 1.43086 1.07637 0.834668 -1.65 -1.65 -1.65 0.203027 0.538184 0.389941 -0.454395 -0.312598 -0.167578 -0.476953 0.203027 0.283594 -0.219141 -0.248145 -0.20625 -0.00644531 -0.128906 -0.20625 -0.0805664 1.18594 0.773438 0.0805664 -0.4125 -0.183691 0.00966797 0.00966797 0.0773437 0 0.0708984 0.0483398 -0.00644531 -0.00322266 0.0902344 0.386719 0.67998 0.25459 -0.299707 -0.00644531 1.12148 0.592969 0.567187 -0.219141 -1.03125 -1.36641 -0.528516 -0.25459 -0.128906 0.0386719 0.386719 0.66709 0.525293 -0.0515625 -0.644531 0.338379 1.00547 0 -0.454395 -0.312598 -0.167578 -0.476953 0.203027 0.283594 -0.219141 -0.248145 -0.20625 -0.00644531 -0.128906 -0.20625 -0.0805664 1.18594 0.773438 0.0805664 -0.4125 -0.183691 0.00966797 0.00966797 0.0773437 0 0.0708984 0.0483398 -0.00644531 -0.00322266 0.0902344 0.386719 0.67998 0.25459 -0.299707 -0.00644531 1.12148 0.592969 0.567187 -0.219141 -1.03125 -1.36641 -0.528516 -0.25459 -0.128906 0.0386719 0.386719 0.66709 0.525293 -0.0515625 -0.644531 0.338379 1.00547 0.199805 -1.26006 -1.14082 -0.547852 -0.270703 -0.0418945 0.0612305 0.0805664 0.0386719 0.0483398 0.0225586 -0.00322266 0 0.0386719 0.0999023 0.148242 0.180469 0.180469 0.164355 0.132129 0.0902344 0.0483398 0.0225586 0.0225586 0.0483398 0.0999023 0.125684 0.132129 0.112793 0.0773437 0.0451172 -0.0128906 -0.0225586 -0.0257812 -0.0225586 0.00966797 0.0483398 0.0483398 0.0483398 0.0386719 -0.00322266 -0.0515625 -0.0644531 -0.0515625 -0.0257812 0.00966797 0.0290039 0.0483398 0.0773437 0.0773437 0 -1.26006 -1.14082 -0.547852 -0.270703 -0.0418945 0.0612305 0.0805664 0.0386719 0.0483398 0.0225586 -0.00322266 0 0.0386719 0.0999023 0.148242 0.180469 0.180469 0.164355 0.132129 0.0902344 0.0483398 0.0225586 0.0225586 0.0483398 0.0999023 0.125684 0.132129 0.112793 0.0773437 0.0451172 -0.0128906 -0.0225586 -0.0257812 -0.0225586 0.00966797 0.0483398 0.0483398 0.0483398 0.0386719 -0.00322266 -0.0515625 -0.0644531 -0.0515625 -0.0257812 0.00966797 0.0290039 0.0483398 0.0773437 0.0773437 0.0966797 0.0966797 0.0773437 0.0451172 0.0773437 0.0966797 0.180469 0.251367 0.25459 0.25459 0.228809 0.228809 0.228809 0.283594 0.399609 0.512402 0.50918 0.592969 0.708984 0.721875 0.708984 0.721875 0.696094 0.696094 0.67998 0.647754 0.592969 0.525293 0.36416 0.244922 0.0999023 -0.0128906 -0.103125 -0.103125 -0.10957 -0.103125 -0.0805664 -0.128906 -0.196582 -0.257812 -0.335156 -0.393164 -0.367383 -0.290039 -0.186914 -0.103125 -0.0837891 -0.103125 -0.14502 -0.232031 0 0.0966797 0.0773437 0.0451172 0.0773437 0.0966797 0.180469 0.251367 0.25459 0.25459 0.228809 0.228809 0.228809 0.283594 0.399609 0.512402 0.50918 0.592969 0.708984 0.721875 0.708984 0.721875 0.696094 0.696094 0.67998 0.647754 0.592969 0.525293 0.36416 0.244922 0.0999023 -0.0128906 -0.103125 -0.103125 -0.10957 -0.103125 -0.0805664 -0.128906 -0.196582 -0.257812 -0.335156 -0.393164 -0.367383 -0.290039 -0.186914 -0.103125 -0.0837891 -0.103125 -0.14502 -0.232031 -0.312598 -0.373828 -0.36416 -0.299707 -0.183691 -0.0805664 -0.0225586 -0.0580078 -0.10957 -0.232031 -0.35127 -0.4125 -0.402832 -0.299707 -0.20625 -0.093457 -0.00322266 -0.0225586 -0.103125 -0.219141 -0.335156 -0.409277 -0.389941 -0.299707 -0.167578 -0.0257812 0.0612305 0.0451172 -0.0257812 -0.15791 -0.286816 -0.36416 -0.35127 -0.257812 -0.116016 0 0.0999023 0.0902344 0.00322266 -0.116016 -0.257812 -0.341602 -0.335156 -0.257812 -0.125684 0.00966797 0.0999023 0.0773437 0.00966797 -0.125684 0 -0.373828 -0.36416 -0.299707 -0.183691 -0.0805664 -0.0225586 -0.0580078 -0.10957 -0.232031 -0.35127 -0.4125 -0.402832 -0.299707 -0.20625 -0.093457 -0.00322266 -0.0225586 -0.103125 -0.219141 -0.335156 -0.409277 -0.389941 -0.299707 -0.167578 -0.0257812 0.0612305 0.0451172 -0.0257812 -0.15791 -0.286816 -0.36416 -0.35127 -0.257812 -0.116016 0 0.0999023 0.0902344 0.00322266 -0.116016 -0.257812 -0.341602 -0.335156 -0.257812 -0.125684 0.00966797 0.0999023 0.0773437 0.00966797 -0.125684 -0.248145 -0.322266 -0.322266 -0.232031 -0.0837891 0.0451172 0.125684 0.0999023 0.00322266 -0.128906 -0.25459 -0.286816 -0.248145 -0.183691 -0.0515625 0.0483398 0.125684 0.0999023 0.0483398 -0.0515625 -0.183691 -0.264258 -0.25459 -0.183691 -0.0644531 0.0483398 0.141797 0.154687 0.0999023 -0.0322266 -0.203027 -0.25459 -0.228809 -0.167578 -0.0257812 0.0483398 0.125684 0.125684 0.0547852 -0.0257812 -0.103125 -0.203027 -0.196582 -0.128906 -0.0257812 0.0773437 0.0999023 0.0547852 0.0451172 -0.0580078 0 -0.322266 -0.322266 -0.232031 -0.0837891 0.0451172 0.125684 0.0999023 0.00322266 -0.128906 -0.25459 -0.286816 -0.248145 -0.183691 -0.0515625 0.0483398 0.125684 0.0999023 0.0483398 -0.0515625 -0.183691 -0.264258 -0.25459 -0.183691 -0.0644531 0.0483398 0.141797 0.154687 0.0999023 -0.0322266 -0.203027 -0.25459 -0.228809 -0.167578 -0.0257812 0.0483398 0.125684 0.125684 0.0547852 -0.0257812 -0.103125 -0.203027 -0.196582 -0.128906 -0.0257812 0.0773437 0.0999023 0.0547852 0.0451172 -0.0580078 -0.186914 -0.232031 -0.196582 -0.10957 -0.00322266 0.0612305 0.112793 0.0966797 0.00966797 -0.0580078 -0.128906 -0.128906 -0.093457 -0.0805664 -0.0418945 -0.0225586 0.0451172 0.0773437 0.0483398 -0.0257812 -0.128906 -0.228809 -0.232031 -0.177246 -0.0515625 0.0805664 0.15791 0.154687 0.0999023 -0.0257812 -0.116016 -0.20625 -0.167578 -0.00644531 0.309375 0.435059 0.431836 0.0773437 -0.183691 -0.35127 -0.425391 -0.4125 -0.35127 -0.25459 -0.10957 0.00966797 0.0999023 0.122461 0.0708984 -0.0257812 0 -0.232031 -0.196582 -0.10957 -0.00322266 0.0612305 0.112793 0.0966797 0.00966797 -0.0580078 -0.128906 -0.128906 -0.093457 -0.0805664 -0.0418945 -0.0225586 0.0451172 0.0773437 0.0483398 -0.0257812 -0.128906 -0.228809 -0.232031 -0.177246 -0.0515625 0.0805664 0.15791 0.154687 0.0999023 -0.0257812 -0.116016 -0.20625 -0.167578 -0.00644531 0.309375 0.435059 0.431836 0.0773437 -0.183691 -0.35127 -0.425391 -0.4125 -0.35127 -0.25459 -0.10957 0.00966797 0.0999023 0.122461 0.0708984 -0.0257812 -0.14502 -0.219141 -0.20625 -0.125684 -0.0128906 0.0999023 0.180469 0.154687 0.0773437 -0.00322266 -0.116016 -0.203027 -0.183691 -0.10957 -0.0128906 0.122461 0.203027 0.199805 0.122461 0.00322266 -0.0837891 -0.15791 -0.161133 -0.103125 0.0290039 0.0966797 0.148242 0.0999023 0.0225586 -0.0257812 -0.116016 -0.128906 -0.0644531 -0.0322266 0 0.0483398 0.141797 0.154687 0.0999023 0.0386719 -0.0257812 -0.128906 -0.20625 -0.196582 -0.116016 -0.0580078 0.0225586 0.0451172 0.0193359 -0.0515625 0 -0.219141 -0.20625 -0.125684 -0.0128906 0.0999023 0.180469 0.154687 0.0773437 -0.00322266 -0.116016 -0.203027 -0.183691 -0.10957 -0.0128906 0.122461 0.203027 0.199805 0.122461 0.00322266 -0.0837891 -0.15791 -0.161133 -0.103125 0.0290039 0.0966797 0.148242 0.0999023 0.0225586 -0.0257812 -0.116016 -0.128906 -0.0644531 -0.0322266 0 0.0483398 0.141797 0.154687 0.0999023 0.0386719 -0.0257812 -0.128906 -0.20625 -0.196582 -0.116016 -0.0580078 0.0225586 0.0451172 0.0193359 -0.0515625 -0.116016 -0.196582 -0.186914 -0.125684 -0.0418945 0.0483398 0.112793 0.0966797 0.0612305 -0.0128906 -0.103125 -0.186914 -0.177246 -0.128906 -0.0644531 0 0.0483398 0.0773437 0.0612305 0 -0.0547852 -0.10957 -0.0999023 -0.0999023 -0.0483398 0 0.0773437 0.0483398 0.0386719 -0.0128906 -0.0483398 -0.0644531 -0.0837891 -0.0741211 -0.0257812 0.0225586 0.0773437 0.0612305 0.0773437 -0.0128906 -0.0805664 -0.10957 -0.103125 -0.0837891 -0.0257812 0.00966797 0.0483398 0.0483398 0.0483398 0.00322266 0 -0.196582 -0.186914 -0.125684 -0.0418945 0.0483398 0.112793 0.0966797 0.0612305 -0.0128906 -0.103125 -0.186914 -0.177246 -0.128906 -0.0644531 0 0.0483398 0.0773437 0.0612305 0 -0.0547852 -0.10957 -0.0999023 -0.0999023 -0.0483398 0 0.0773437 0.0483398 0.0386719 -0.0128906 -0.0483398 -0.0644531 -0.0837891 -0.0741211 -0.0257812 0.0225586 0.0773437 0.0612305 0.0773437 -0.0128906 -0.0805664 -0.10957 -0.103125 -0.0837891 -0.0257812 0.00966797 0.0483398 0.0483398 0.0483398 0.00322266 -0.0257812 -0.093457 -0.0999023 -0.093457 -0.0257812 0.00966797 0.0483398 0.0773437 0.0193359 -0.0418945 -0.0805664 -0.116016 -0.0999023 -0.103125 -0.093457 -0.00644531 0.0290039 0.0386719 0.0225586 -0.0128906 -0.0741211 -0.116016 -0.128906 -0.0837891 -0.0257812 0.0225586 0.0773437 0.0483398 0.00966797 0 -0.0580078 -0.093457 -0.103125 -0.0805664 -0.0483398 0.00322266 0.0483398 0.0483398 0.0193359 -0.0257812 -0.0644531 -0.0805664 -0.0805664 -0.0805664 -0.0257812 0.0225586 0.0612305 0.0225586 0.0225586 0 0 -0.093457 -0.0999023 -0.093457 -0.0257812 0.00966797 0.0483398 0.0773437 0.0193359 -0.0418945 -0.0805664 -0.116016 -0.0999023 -0.103125 -0.093457 -0.00644531 0.0290039 0.0386719 0.0225586 -0.0128906 -0.0741211 -0.116016 -0.128906 -0.0837891 -0.0257812 0.0225586 0.0773437 0.0483398 0.00966797 0 -0.0580078 -0.093457 -0.103125 -0.0805664 -0.0483398 0.00322266 0.0483398 0.0483398 0.0193359 -0.0257812 -0.0644531 -0.0805664 -0.0805664 -0.0805664 -0.0257812 0.0225586 0.0612305 0.0225586 0.0225586 0 -0.0644531 -0.0902344 -0.0805664 -0.0515625 -0.0483398 0.0290039 0.0483398 0.0773437 0.0612305 0.00966797 -0.0418945 -0.0805664 -0.0805664 -0.0515625 -0.0257812 0.00966797 0.0773437 0.0612305 0.0386719 -0.0128906 -0.0515625 -0.0741211 -0.0805664 -0.0644531 -0.0257812 0 0.0386719 0.0483398 0.0483398 0.0483398 -0.00322266 -0.103125 -0.103125 -0.0515625 -0.0515625 0 0.0483398 0.0451172 0.0386719 -0.00322266 -0.0418945 -0.0741211 -0.0805664 -0.0644531 -0.0418945 -0.0128906 0.0225586 0.0290039 0.0225586 -0.0128906 0 -0.0902344 -0.0805664 -0.0515625 -0.0483398 0.0290039 0.0483398 0.0773437 0.0612305 0.00966797 -0.0418945 -0.0805664 -0.0805664 -0.0515625 -0.0257812 0.00966797 0.0773437 0.0612305 0.0386719 -0.0128906 -0.0515625 -0.0741211 -0.0805664 -0.0644531 -0.0257812 0 0.0386719 0.0483398 0.0483398 0.0483398 -0.00322266 -0.103125 -0.103125 -0.0515625 -0.0515625 0 0.0483398 0.0451172 0.0386719 -0.00322266 -0.0418945 -0.0741211 -0.0805664 -0.0644531 -0.0418945 -0.0128906 0.0225586 0.0290039 0.0225586 -0.0128906 -0.0418945 -0.0483398 -0.0644531 -0.0741211 -0.0483398 -0.00322266 0.0225586 0.0225586 0.0225586 -0.0128906 -0.0418945 -0.0805664 -0.103125 -0.0547852 -0.0257812 0 0.0386719 0.0225586 0 -0.0225586 -0.0257812 -0.0483398 -0.0644531 -0.0644531 -0.0257812 -0.00322266 0.0193359 0.0483398 0.00966797 0.00966797 -0.0515625 -0.0837891 -0.0999023 -0.0805664 -0.0580078 -0.0128906 0.00966797 0.00966797 0.00966797 -0.00644531 -0.0128906 -0.0515625 -0.0999023 -0.0644531 -0.0483398 -0.00322266 0.0225586 0.0225586 0.0225586 0 0 -0.0483398 -0.0644531 -0.0741211 -0.0483398 -0.00322266 0.0225586 0.0225586 0.0225586 -0.0128906 -0.0418945 -0.0805664 -0.103125 -0.0547852 -0.0257812 0 0.0386719 0.0225586 0 -0.0225586 -0.0257812 -0.0483398 -0.0644531 -0.0644531 -0.0257812 -0.00322266 0.0193359 0.0483398 0.00966797 0.00966797 -0.0515625 -0.0837891 -0.0999023 -0.0805664 -0.0580078 -0.0128906 0.00966797 0.00966797 0.00966797 -0.00644531 -0.0128906 -0.0515625 -0.0999023 -0.0644531 -0.0483398 -0.00322266 0.0225586 0.0225586 0.0225586 0 -0.0580078 -0.0805664 -0.0515625 -0.0805664 -0.0805664 0.00966797 0.0386719 0.0193359 0.0225586 -0.00322266 -0.0418945 -0.0644531 -0.0805664 -0.0805664 -0.0257812 0.00966797 0.0225586 0 0.0193359 0 -0.0257812 -0.0741211 -0.0805664 -0.0644531 -0.0483398 -0.0128906 0.0225586 0.00966797 0.0290039 0.00322266 -0.0257812 -0.0644531 -0.0515625 -0.0515625 -0.0418945 -0.0128906 0.00966797 0.0386719 0.0225586 0 -0.0257812 -0.0580078 -0.0580078 -0.0515625 -0.0515625 -0.00322266 0.0225586 0.0225586 0.0225586 0.00966797 0 -0.0805664 -0.0515625 -0.0805664 -0.0805664 0.00966797 0.0386719 0.0193359 0.0225586 -0.00322266 -0.0418945 -0.0644531 -0.0805664 -0.0805664 -0.0257812 0.00966797 0.0225586 0 0.0193359 0 -0.0257812 -0.0741211 -0.0805664 -0.0644531 -0.0483398 -0.0128906 0.0225586 0.00966797 0.0290039 0.00322266 -0.0257812 -0.0644531 -0.0515625 -0.0515625 -0.0418945 -0.0128906 0.00966797 0.0386719 0.0225586 0 -0.0257812 -0.0580078 -0.0580078 -0.0515625 -0.0515625 -0.00322266 0.0225586 0.0225586 0.0225586 0.00966797 -0.0128906 -0.0515625 -0.0805664 -0.0580078 -0.0483398 -0.0128906 0.0386719 0.0386719 0.0225586 0.0225586 -0.0257812 -0.0515625 -0.0580078 -0.0644531 -0.0257812 -0.00322266 0.0225586 0.0225586 0.0483398 -0.00644531 -0.0322266 -0.0515625 -0.0580078 -0.0515625 -0.0418945 -0.0128906 0.0225586 0.0386719 0.0386719 0.0193359 -0.0225586 -0.0580078 -0.0805664 -0.0676758 -0.0257812 -0.00644531 0.0225586 0.00966797 0.0290039 0.0193359 -0.00644531 -0.0515625 -0.0644531 -0.0515625 -0.0322266 -0.00644531 0.0225586 0.0483398 0.0225586 0.00966797 0 -0.0515625 -0.0805664 -0.0580078 -0.0483398 -0.0128906 0.0386719 0.0386719 0.0225586 0.0225586 -0.0257812 -0.0515625 -0.0580078 -0.0644531 -0.0257812 -0.00322266 0.0225586 0.0225586 0.0483398 -0.00644531 -0.0322266 -0.0515625 -0.0580078 -0.0515625 -0.0418945 -0.0128906 0.0225586 0.0386719 0.0386719 0.0193359 -0.0225586 -0.0580078 -0.0805664 -0.0676758 -0.0257812 -0.00644531 0.0225586 0.00966797 0.0290039 0.0193359 -0.00644531 -0.0515625 -0.0644531 -0.0515625 -0.0322266 -0.00644531 0.0225586 0.0483398 0.0225586 0.00966797 -0.0257812 -0.0515625 -0.0805664 -0.0741211 -0.0322266 -0.00322266 0.0225586 0.0483398 0.0225586 0.00966797 -0.00322266 -0.0644531 -0.0805664 -0.0837891 -0.0515625 0 0.0225586 0.0386719 0.0386719 0.00322266 -0.0418945 -0.0741211 -0.0644531 -0.0515625 -0.0418945 -0.00644531 0.0225586 0.0386719 0.0483398 0.00322266 -0.0257812 -0.0805664 -0.0741211 -0.0805664 -0.0515625 0 0.0386719 0.0193359 0.00966797 0.00322266 -0.0257812 -0.0515625 -0.0644531 -0.0515625 -0.0418945 0 0.00966797 0.0451172 0.0483398 0.00966797 0 -0.0515625 -0.0805664 -0.0741211 -0.0322266 -0.00322266 0.0225586 0.0483398 0.0225586 0.00966797 -0.00322266 -0.0644531 -0.0805664 -0.0837891 -0.0515625 0 0.0225586 0.0386719 0.0386719 0.00322266 -0.0418945 -0.0741211 -0.0644531 -0.0515625 -0.0418945 -0.00644531 0.0225586 0.0386719 0.0483398 0.00322266 -0.0257812 -0.0805664 -0.0741211 -0.0805664 -0.0515625 0 0.0386719 0.0193359 0.00966797 0.00322266 -0.0257812 -0.0515625 -0.0644531 -0.0515625 -0.0418945 0 0.00966797 0.0451172 0.0483398 0.00966797 -0.0257812 -0.0580078 -0.0644531 -0.0741211 -0.0741211 -0.00644531 0.0483398 0.0483398 0.0483398 0.00966797 -0.0257812 -0.0644531 -0.0644531 -0.0644531 -0.0515625 -0.0128906 0.0451172 0.0483398 0.00966797 0.00966797 -0.0257812 -0.0644531 -0.0580078 -0.0741211 -0.0483398 0 0.0290039 0.0547852 0.0386719 0 -0.0257812 -0.0515625 -0.0805664 -0.0515625 -0.0483398 -0.0257812 0.0386719 0.0290039 0.0225586 0.00966797 -0.0257812 -0.0580078 -0.0805664 -0.0644531 -0.0418945 0 0.0225586 0.0386719 0.0451172 0 0 -0.0580078 -0.0644531 -0.0741211 -0.0741211 -0.00644531 0.0483398 0.0483398 0.0483398 0.00966797 -0.0257812 -0.0644531 -0.0644531 -0.0644531 -0.0515625 -0.0128906 0.0451172 0.0483398 0.00966797 0.00966797 -0.0257812 -0.0644531 -0.0580078 -0.0741211 -0.0483398 0 0.0290039 0.0547852 0.0386719 0 -0.0257812 -0.0515625 -0.0805664 -0.0515625 -0.0483398 -0.0257812 0.0386719 0.0290039 0.0225586 0.00966797 -0.0257812 -0.0580078 -0.0805664 -0.0644531 -0.0418945 0 0.0225586 0.0386719 0.0451172 0 -0.0418945 -0.0644531 -0.0805664 -0.0515625 -0.0515625 0 0.0386719 0.0483398 0.0386719 0 -0.0128906 -0.0515625 -0.0515625 -0.0644531 -0.0644531 -0.00322266 0.0451172 0.0386719 0.0225586 0.00322266 -0.0322266 -0.0515625 -0.0644531 -0.0515625 -0.0257812 -0.00322266 0.0386719 0.0386719 0.0225586 -0.00322266 -0.0257812 -0.0515625 -0.0805664 -0.0805664 -0.0418945 -0.0128906 0.0225586 0.0483398 0.0451172 0.0225586 -0.0257812 -0.0580078 -0.0644531 -0.0580078 -0.0418945 -0.0257812 0.0225586 0.0483398 0.0225586 0.00966797 0 -0.0644531 -0.0805664 -0.0515625 -0.0515625 0 0.0386719 0.0483398 0.0386719 0 -0.0128906 -0.0515625 -0.0515625 -0.0644531 -0.0644531 -0.00322266 0.0451172 0.0386719 0.0225586 0.00322266 -0.0322266 -0.0515625 -0.0644531 -0.0515625 -0.0257812 -0.00322266 0.0386719 0.0386719 0.0225586 -0.00322266 -0.0257812 -0.0515625 -0.0805664 -0.0805664 -0.0418945 -0.0128906 0.0225586 0.0483398 0.0451172 0.0225586 -0.0257812 -0.0580078 -0.0644531 -0.0580078 -0.0418945 -0.0257812 0.0225586 0.0483398 0.0225586 0.00966797 -0.00644531 -0.0837891 -0.0644531 -0.0805664 -0.0418945 -0.00644531 0.0225586 0.0386719 0.0225586 0.00322266 -0.0257812 -0.0386719 -0.0644531 -0.0741211 -0.0418945 -0.00322266 0.0225586 0.0225586 0.0225586 0 -0.0128906 -0.0515625 -0.0644531 -0.0837891 -0.0257812 -0.0128906 0.0225586 0.0483398 0.0225586 0.0225586 -0.0128906 -0.0580078 -0.0805664 -0.0644531 -0.0257812 0 0.0290039 0.0290039 0.0225586 -0.00322266 -0.0257812 -0.0580078 -0.0805664 -0.0580078 -0.0257812 0.0193359 0.0451172 0.0483398 0.0773437 0.0386719 0 -0.0837891 -0.0644531 -0.0805664 -0.0418945 -0.00644531 0.0225586 0.0386719 0.0225586 0.00322266 -0.0257812 -0.0386719 -0.0644531 -0.0741211 -0.0418945 -0.00322266 0.0225586 0.0225586 0.0225586 0 -0.0128906 -0.0515625 -0.0644531 -0.0837891 -0.0257812 -0.0128906 0.0225586 0.0483398 0.0225586 0.0225586 -0.0128906 -0.0580078 -0.0805664 -0.0644531 -0.0257812 0 0.0290039 0.0290039 0.0225586 -0.00322266 -0.0257812 -0.0580078 -0.0805664 -0.0580078 -0.0257812 0.0193359 0.0451172 0.0483398 0.0773437 0.0386719 0.0451172 -0.0128906 0 -0.0128906 -0.00644531 -0.0128906 -0.0805664 -0.0805664 -0.103125 -0.0644531 -0.0644531 0 -0.0418945 -0.0515625 -0.0515625 0.0612305 0.141797 0.154687 0.106348 -0.0128906 -0.0644531 -0.0999023 -0.103125 -0.0580078 -0.0999023 -0.116016 -0.0515625 0.0966797 0.0773437 0.0999023 0.0225586 0.0773437 0.193359 0.0612305 -0.14502 -0.15791 -0.0805664 -0.103125 -0.0805664 -0.0805664 -0.093457 -0.0644531 0.0999023 0.125684 0.0612305 -0.335156 0.125684 0.228809 0.0966797 -0.0515625 0 -0.0128906 0 -0.0128906 -0.00644531 -0.0128906 -0.0805664 -0.0805664 -0.103125 -0.0644531 -0.0644531 0 -0.0418945 -0.0515625 -0.0515625 0.0612305 0.141797 0.154687 0.106348 -0.0128906 -0.0644531 -0.0999023 -0.103125 -0.0580078 -0.0999023 -0.116016 -0.0515625 0.0966797 0.0773437 0.0999023 0.0225586 0.0773437 0.193359 0.0612305 -0.14502 -0.15791 -0.0805664 -0.103125 -0.0805664 -0.0805664 -0.093457 -0.0644531 0.0999023 0.125684 0.0612305 -0.335156 0.125684 0.228809 0.0966797 -0.0515625 -0.161133 -0.232031 -0.0805664 -0.151465 -0.402832 -0.322266 -0.0644531 0.0773437 -0.093457 -0.093457 0.199805 -0.093457 0.0902344 0.312598 0.331934 0.228809 0.0773437 -0.0257812 -0.0257812 -0.0644531 -0.14502 -0.0999023 -0.116016 -0.464062 -0.161133 -0.0257812 0.0483398 0.0451172 -0.00322266 -0.116016 -0.0644531 -0.0418945 -0.00322266 0.0290039 0 -0.0741211 0.0612305 0.125684 0.125684 -0.00644531 -0.14502 -0.161133 -0.116016 -0.10957 -0.093457 -0.0805664 -0.128906 -0.00322266 0.125684 0.0773437 0 -0.232031 -0.0805664 -0.151465 -0.402832 -0.322266 -0.0644531 0.0773437 -0.093457 -0.093457 0.199805 -0.093457 0.0902344 0.312598 0.331934 0.228809 0.0773437 -0.0257812 -0.0257812 -0.0644531 -0.14502 -0.0999023 -0.116016 -0.464062 -0.161133 -0.0257812 0.0483398 0.0451172 -0.00322266 -0.116016 -0.0644531 -0.0418945 -0.00322266 0.0290039 0 -0.0741211 0.0612305 0.125684 0.125684 -0.00644531 -0.14502 -0.161133 -0.116016 -0.10957 -0.093457 -0.0805664 -0.128906 -0.00322266 0.125684 0.0773437 -0.0128906 -0.15791 -0.161133 -0.15791 -0.196582 0 -0.00644531 -0.0644531 0.0386719 -0.141797 -0.196582 -0.20625 -0.0999023 -0.0128906 0.112793 0.180469 0.125684 0.183691 0.193359 0.199805 -0.0128906 -0.257812 -0.257812 -0.183691 -0.14502 -0.103125 0.00966797 0.0612305 0.00966797 0.00322266 -0.15791 -0.219141 -0.15791 -0.0644531 0.0902344 0.244922 0.309375 0.244922 0.15791 -0.00644531 -0.20625 -0.373828 -0.335156 -0.248145 -0.103125 0.112793 0.309375 0.47373 0.50918 0.193359 0 -0.15791 -0.161133 -0.15791 -0.196582 0 -0.00644531 -0.0644531 0.0386719 -0.141797 -0.196582 -0.20625 -0.0999023 -0.0128906 0.112793 0.180469 0.125684 0.183691 0.193359 0.199805 -0.0128906 -0.257812 -0.257812 -0.183691 -0.14502 -0.103125 0.00966797 0.0612305 0.00966797 0.00322266 -0.15791 -0.219141 -0.15791 -0.0644531 0.0902344 0.244922 0.309375 0.244922 0.15791 -0.00644531 -0.20625 -0.373828 -0.335156 -0.248145 -0.103125 0.112793 0.309375 0.47373 0.50918 0.193359 -0.167578 -0.670312 -0.953906 -0.847559 -0.699316 -0.36416 -0.00644531 0.0483398 0.0225586 0.00966797 0.47373 0.71543 0.489844 -0.0483398 -0.299707 -0.335156 -0.609082 -0.393164 -0.10957 0.0225586 0.0773437 0.0999023 0.180469 1.15371 1.62744 1.15693 0.0902344 -0.66709 -1.00869 -0.857227 -0.4125 -0.248145 -0.161133 -0.0418945 0.125684 0.451172 1.54688 1.62744 1.62744 1.62744 -1.0957 -1.65 -1.65 -1.65 -0.515625 -0.103125 1.29229 1.38574 1.26006 0.576855 0 -0.670312 -0.953906 -0.847559 -0.699316 -0.36416 -0.00644531 0.0483398 0.0225586 0.00966797 0.47373 0.71543 0.489844 -0.0483398 -0.299707 -0.335156 -0.609082 -0.393164 -0.10957 0.0225586 0.0773437 0.0999023 0.180469 1.15371 1.62744 1.15693 0.0902344 -0.66709 -1.00869 -0.857227 -0.4125 -0.248145 -0.161133 -0.0418945 0.125684 0.451172 1.54688 1.62744 1.62744 1.62744 -1.0957 -1.65 -1.65 -1.65 -0.515625 -0.103125 1.29229 1.38574 1.26006 0.576855 1.00547 0.312598 -0.0257812 -0.4125 0.0290039 1.20527 1.62422 1.62744 -1.29551 -1.65 -1.65 -1.65 0.251367 1.24717 1.48887 1.3793 1.62422 1.62744 -1.53721 -1.65 -1.65 -1.65 1.47275 1.45342 1.62744 1.62744 1.62744 -1.65 -1.65 -1.65 -1.65 -1.39541 -0.383496 1.15693 1.62744 1.62744 1.3374 -0.402832 -1.65 -1.65 -1.65 -0.203027 0.57041 0.338379 0.825 0.744434 -0.596191 -1.64678 -0.953906 -0.0515625 0 0.312598 -0.0257812 -0.4125 0.0290039 1.20527 1.62422 1.62744 -1.29551 -1.65 -1.65 -1.65 0.251367 1.24717 1.48887 1.3793 1.62422 1.62744 -1.53721 -1.65 -1.65 -1.65 1.47275 1.45342 1.62744 1.62744 1.62744 -1.65 -1.65 -1.65 -1.65 -1.39541 -0.383496 1.15693 1.62744 1.62744 1.3374 -0.402832 -1.65 -1.65 -1.65 -0.203027 0.57041 0.338379 0.825 0.744434 -0.596191 -1.64678 -0.953906 -0.0515625 0.708984 0.312598 0 0.26748 0.525293 0.750879 0.203027 -0.609082 -0.66709 0.409277 0.331934 0.25459 -0.0805664 -0.128906 0.435059 0.847559 0.319043 0.0999023 0.0547852 -0.0805664 -0.0257812 -0.389941 -0.286816 0.112793 1.09248 0.773438 0.0902344 1.12148 0.596191 -0.528516 -0.299707 -0.335156 -0.599414 -0.541406 0.141797 0.467285 0.141797 0.26748 0.0612305 0.67998 0.621973 -0.699316 -0.454395 -0.341602 -0.0128906 0.228809 0.348047 -0.0128906 0.331934 0.399609 0 0.312598 0 0.26748 0.525293 0.750879 0.203027 -0.609082 -0.66709 0.409277 0.331934 0.25459 -0.0805664 -0.128906 0.435059 0.847559 0.319043 0.0999023 0.0547852 -0.0805664 -0.0257812 -0.389941 -0.286816 0.112793 1.09248 0.773438 0.0902344 1.12148 0.596191 -0.528516 -0.299707 -0.335156 -0.599414 -0.541406 0.141797 0.467285 0.141797 0.26748 0.0612305 0.67998 0.621973 -0.699316 -0.454395 -0.341602 -0.0128906 0.228809 0.348047 -0.0128906 0.331934 0.399609 -0.196582 -0.444727 -0.373828 -0.0999023 0.0773437 0.219141 0.319043 0.348047 0.277148 0.0999023 -0.0515625 -0.161133 -0.15791 -0.0837891 0.0612305 0.203027 0.312598 0.312598 0.215918 0.0386719 -0.103125 -0.20625 -0.20625 -0.128906 0.00966797 0.15791 0.244922 0.228809 0.148242 0.0451172 -0.0644531 -0.15791 -0.167578 -0.0837891 0.112793 0.283594 0.399609 0.370605 0.309375 0.228809 0.0805664 -0.0805664 -0.116016 -0.0257812 0.141797 0.360937 0.512402 0.621973 0.628418 0.592969 0 -0.444727 -0.373828 -0.0999023 0.0773437 0.219141 0.319043 0.348047 0.277148 0.0999023 -0.0515625 -0.161133 -0.15791 -0.0837891 0.0612305 0.203027 0.312598 0.312598 0.215918 0.0386719 -0.103125 -0.20625 -0.20625 -0.128906 0.00966797 0.15791 0.244922 0.228809 0.148242 0.0451172 -0.0644531 -0.15791 -0.167578 -0.0837891 0.112793 0.283594 0.399609 0.370605 0.309375 0.228809 0.0805664 -0.0805664 -0.116016 -0.0257812 0.141797 0.360937 0.512402 0.621973 0.628418 0.592969 0.621973 0.605859 0.657422 0.66709 0.721875 0.708984 0.66709 0.576855 0.46084 0.331934 0.15791 0.0225586 0.00966797 0.00966797 0.00966797 0.0386719 0.0612305 0.0225586 -0.093457 -0.228809 -0.389941 -0.476953 -0.4125 -0.389941 -0.299707 -0.232031 -0.196582 -0.15791 -0.248145 -0.57041 -0.805664 -0.98291 -0.953906 -0.889453 -0.770215 -0.66709 -0.631641 -0.644531 -0.699316 -0.734766 -0.77666 -0.770215 -0.77666 -0.72832 -0.57041 -0.425391 -0.299707 -0.286816 -0.35127 -0.493066 0 0.605859 0.657422 0.66709 0.721875 0.708984 0.66709 0.576855 0.46084 0.331934 0.15791 0.0225586 0.00966797 0.00966797 0.00966797 0.0386719 0.0612305 0.0225586 -0.093457 -0.228809 -0.389941 -0.476953 -0.4125 -0.389941 -0.299707 -0.232031 -0.196582 -0.15791 -0.248145 -0.57041 -0.805664 -0.98291 -0.953906 -0.889453 -0.770215 -0.66709 -0.631641 -0.644531 -0.699316 -0.734766 -0.77666 -0.770215 -0.77666 -0.72832 -0.57041 -0.425391 -0.299707 -0.286816 -0.35127 -0.493066 -0.631641 -0.699316 -0.66709 -0.528516 -0.335156 -0.14502 0.00966797 0.0386719 -0.0257812 -0.248145 -0.335156 -0.409277 -0.389941 -0.286816 -0.103125 0.0773437 0.203027 0.228809 0.141797 -0.0128906 -0.167578 -0.299707 -0.312598 -0.20625 -0.0418945 0.141797 0.26748 0.270703 0.193359 0.0290039 -0.15791 -0.270703 -0.264258 -0.183691 -0.00322266 0.15791 0.244922 0.286816 0.25459 0.125684 -0.0805664 -0.257812 -0.299707 -0.183691 -0.00322266 0.125684 0.244922 0.261035 0.203027 0.0386719 0 -0.699316 -0.66709 -0.528516 -0.335156 -0.14502 0.00966797 0.0386719 -0.0257812 -0.248145 -0.335156 -0.409277 -0.389941 -0.286816 -0.103125 0.0773437 0.203027 0.228809 0.141797 -0.0128906 -0.167578 -0.299707 -0.312598 -0.20625 -0.0418945 0.141797 0.26748 0.270703 0.193359 0.0290039 -0.15791 -0.270703 -0.264258 -0.183691 -0.00322266 0.15791 0.244922 0.286816 0.25459 0.125684 -0.0805664 -0.257812 -0.299707 -0.183691 -0.00322266 0.125684 0.244922 0.261035 0.203027 0.0386719 -0.0999023 -0.196582 -0.219141 -0.167578 -0.0483398 0.0999023 0.180469 0.203027 0.15791 0.0483398 -0.116016 -0.232031 -0.248145 -0.183691 -0.0257812 0.0999023 0.203027 0.228809 0.203027 0.0999023 -0.093457 -0.232031 -0.286816 -0.183691 -0.0418945 0.112793 0.348047 0.409277 0.331934 0.0805664 -0.20625 -0.35127 -0.367383 -0.357715 -0.20625 -0.0418945 0.125684 0.199805 0.203027 0.199805 0.125684 -0.0257812 -0.20625 -0.335156 -0.286816 -0.0515625 0.0966797 0.125684 0.0902344 -0.0257812 0 -0.196582 -0.219141 -0.167578 -0.0483398 0.0999023 0.180469 0.203027 0.15791 0.0483398 -0.116016 -0.232031 -0.248145 -0.183691 -0.0257812 0.0999023 0.203027 0.228809 0.203027 0.0999023 -0.093457 -0.232031 -0.286816 -0.183691 -0.0418945 0.112793 0.348047 0.409277 0.331934 0.0805664 -0.20625 -0.35127 -0.367383 -0.357715 -0.20625 -0.0418945 0.125684 0.199805 0.203027 0.199805 0.125684 -0.0257812 -0.20625 -0.335156 -0.286816 -0.0515625 0.0966797 0.125684 0.0902344 -0.0257812 -0.10957 -0.183691 -0.183691 -0.128906 -0.00644531 0.125684 0.203027 0.228809 0.180469 0.0773437 -0.0580078 -0.183691 -0.232031 -0.183691 -0.0580078 0.0773437 0.193359 0.203027 0.180469 0.0225586 -0.0902344 -0.232031 -0.183691 -0.0580078 0.141797 0.180469 0.228809 0.228809 0.148242 -0.0418945 -0.20625 -0.299707 -0.331934 -0.312598 -0.183691 -0.0644531 0.0902344 0.0999023 0.0902344 -0.0128906 -0.128906 -0.20625 -0.264258 -0.248145 -0.0805664 0.0999023 0.203027 0.25459 0.203027 0.0773437 0 -0.183691 -0.183691 -0.128906 -0.00644531 0.125684 0.203027 0.228809 0.180469 0.0773437 -0.0580078 -0.183691 -0.232031 -0.183691 -0.0580078 0.0773437 0.193359 0.203027 0.180469 0.0225586 -0.0902344 -0.232031 -0.183691 -0.0580078 0.141797 0.180469 0.228809 0.228809 0.148242 -0.0418945 -0.20625 -0.299707 -0.331934 -0.312598 -0.183691 -0.0644531 0.0902344 0.0999023 0.0902344 -0.0128906 -0.128906 -0.20625 -0.264258 -0.248145 -0.0805664 0.0999023 0.203027 0.25459 0.203027 0.0773437 -0.0644531 -0.183691 -0.196582 -0.15791 -0.0644531 0.0483398 0.141797 0.15791 0.125684 0.0225586 -0.0999023 -0.161133 -0.196582 -0.135352 -0.103125 0 0.0902344 0.122461 0.0999023 0.00966797 -0.0837891 -0.177246 -0.183691 -0.15791 -0.0805664 -0.00644531 0.0483398 0.0483398 0.0386719 -0.0515625 -0.116016 -0.167578 -0.167578 -0.183691 -0.116016 -0.0515625 0.00322266 0.00966797 0 -0.0257812 -0.0999023 -0.151465 -0.167578 -0.0999023 -0.0418945 -0.00644531 0.0225586 0.0451172 0.0225586 -0.0257812 0 -0.183691 -0.196582 -0.15791 -0.0644531 0.0483398 0.141797 0.15791 0.125684 0.0225586 -0.0999023 -0.161133 -0.196582 -0.135352 -0.103125 0 0.0902344 0.122461 0.0999023 0.00966797 -0.0837891 -0.177246 -0.183691 -0.15791 -0.0805664 -0.00644531 0.0483398 0.0483398 0.0386719 -0.0515625 -0.116016 -0.167578 -0.167578 -0.183691 -0.116016 -0.0515625 0.00322266 0.00966797 0 -0.0257812 -0.0999023 -0.151465 -0.167578 -0.0999023 -0.0418945 -0.00644531 0.0225586 0.0451172 0.0225586 -0.0257812 -0.0483398 -0.0999023 -0.116016 -0.103125 -0.0515625 -0.0128906 0.0193359 0.0290039 0.00966797 -0.0128906 -0.0418945 -0.0805664 -0.116016 -0.093457 -0.0515625 -0.0128906 0.0225586 0.0483398 0.0612305 0.0290039 0.0225586 -0.0128906 -0.0257812 -0.0257812 0 0.0386719 0.0773437 0.0966797 0.0902344 0.0612305 0.0386719 -0.0128906 -0.0257812 -0.0418945 -0.00322266 0.00322266 0.0225586 0.0773437 0.0966797 0.0290039 -0.0257812 -0.0257812 -0.0515625 -0.0515625 -0.0418945 -0.0515625 -0.00322266 0.0225586 0.0225586 0.0225586 0 -0.0999023 -0.116016 -0.103125 -0.0515625 -0.0128906 0.0193359 0.0290039 0.00966797 -0.0128906 -0.0418945 -0.0805664 -0.116016 -0.093457 -0.0515625 -0.0128906 0.0225586 0.0483398 0.0612305 0.0290039 0.0225586 -0.0128906 -0.0257812 -0.0257812 0 0.0386719 0.0773437 0.0966797 0.0902344 0.0612305 0.0386719 -0.0128906 -0.0257812 -0.0418945 -0.00322266 0.00322266 0.0225586 0.0773437 0.0966797 0.0290039 -0.0257812 -0.0257812 -0.0515625 -0.0515625 -0.0418945 -0.0515625 -0.00322266 0.0225586 0.0225586 0.0225586 -0.00322266 -0.125684 -0.0837891 -0.0837891 -0.0515625 -0.00322266 0.0612305 0.0386719 0.0225586 0.0225586 -0.0225586 -0.0483398 -0.0837891 -0.0644531 -0.0257812 0.0225586 0.0386719 0.0483398 0.0483398 0.0451172 -0.00322266 -0.0805664 -0.0515625 -0.0580078 -0.00322266 0.0193359 0.0451172 0.0193359 0.0483398 0.0225586 -0.0128906 -0.0418945 -0.0644531 -0.0805664 -0.0483398 0.00966797 0.0225586 0.0483398 0.0290039 0.0225586 -0.0128906 -0.0386719 -0.0515625 -0.0386719 -0.0257812 -0.00644531 0.0225586 0.0225586 0.00966797 0.0225586 0 -0.125684 -0.0837891 -0.0837891 -0.0515625 -0.00322266 0.0612305 0.0386719 0.0225586 0.0225586 -0.0225586 -0.0483398 -0.0837891 -0.0644531 -0.0257812 0.0225586 0.0386719 0.0483398 0.0483398 0.0451172 -0.00322266 -0.0805664 -0.0515625 -0.0580078 -0.00322266 0.0193359 0.0451172 0.0193359 0.0483398 0.0225586 -0.0128906 -0.0418945 -0.0644531 -0.0805664 -0.0483398 0.00966797 0.0225586 0.0483398 0.0290039 0.0225586 -0.0128906 -0.0386719 -0.0515625 -0.0386719 -0.0257812 -0.00644531 0.0225586 0.0225586 0.00966797 0.0225586 0 -0.0515625 -0.0741211 -0.0805664 -0.0128906 -0.00322266 -0.0322266 0.0386719 0.0225586 0.0225586 -0.00322266 -0.0322266 -0.0580078 -0.0515625 -0.0515625 -0.0128906 0.0193359 0.0225586 0.00966797 0.0451172 -0.0128906 -0.0580078 -0.0644531 -0.0676758 -0.0515625 -0.0257812 0.00966797 0.0386719 0.0225586 0.00322266 -0.0128906 -0.0418945 -0.0805664 -0.0515625 -0.0418945 -0.00644531 0.0225586 0.0225586 0.00966797 0.0386719 -0.0128906 -0.0515625 -0.0483398 -0.0483398 -0.0483398 0.00322266 0.0451172 0.0386719 0.0225586 0.0290039 0 -0.0515625 -0.0741211 -0.0805664 -0.0128906 -0.00322266 -0.0322266 0.0386719 0.0225586 0.0225586 -0.00322266 -0.0322266 -0.0580078 -0.0515625 -0.0515625 -0.0128906 0.0193359 0.0225586 0.00966797 0.0451172 -0.0128906 -0.0580078 -0.0644531 -0.0676758 -0.0515625 -0.0257812 0.00966797 0.0386719 0.0225586 0.00322266 -0.0128906 -0.0418945 -0.0805664 -0.0515625 -0.0418945 -0.00644531 0.0225586 0.0225586 0.00966797 0.0386719 -0.0128906 -0.0515625 -0.0483398 -0.0483398 -0.0483398 0.00322266 0.0451172 0.0386719 0.0225586 0.0290039 -0.0257812 -0.0837891 -0.0644531 -0.0644531 -0.0418945 0.00322266 0.0451172 0.0483398 0.0612305 0.0225586 -0.0257812 -0.0515625 -0.0805664 -0.0837891 -0.0257812 0.0193359 0.0483398 0.0773437 0.0612305 0.00966797 -0.0515625 -0.0805664 -0.103125 -0.0805664 -0.0483398 0.00966797 0.0483398 0.0612305 0.0483398 0.00966797 -0.0257812 -0.0837891 -0.103125 -0.0805664 -0.0580078 0.00322266 0.0547852 0.0612305 0.0483398 -0.00322266 -0.0257812 -0.0805664 -0.103125 -0.0805664 -0.0418945 0 0.0483398 0.0483398 0.0386719 0.00966797 0 -0.0837891 -0.0644531 -0.0644531 -0.0418945 0.00322266 0.0451172 0.0483398 0.0612305 0.0225586 -0.0257812 -0.0515625 -0.0805664 -0.0837891 -0.0257812 0.0193359 0.0483398 0.0773437 0.0612305 0.00966797 -0.0515625 -0.0805664 -0.103125 -0.0805664 -0.0483398 0.00966797 0.0483398 0.0612305 0.0483398 0.00966797 -0.0257812 -0.0837891 -0.103125 -0.0805664 -0.0580078 0.00322266 0.0547852 0.0612305 0.0483398 -0.00322266 -0.0257812 -0.0805664 -0.103125 -0.0805664 -0.0418945 0 0.0483398 0.0483398 0.0386719 0.00966797 -0.0483398 -0.0644531 -0.0805664 -0.093457 -0.0418945 0.00966797 0.0386719 0.0773437 0.0451172 0.00322266 -0.0257812 -0.0580078 -0.0999023 -0.0805664 -0.0515625 -0.00322266 0.0225586 0.0483398 0.0483398 0.0225586 -0.0418945 -0.0805664 -0.0805664 -0.0999023 -0.0322266 0.0193359 0.0225586 0.0483398 0.0483398 0.0225586 -0.0257812 -0.0580078 -0.0837891 -0.0644531 -0.0418945 0 0.0225586 0.0483398 0.0225586 -0.00644531 -0.0257812 -0.0580078 -0.0741211 -0.0644531 -0.0418945 -0.0128906 0.0225586 0.0225586 0.00966797 -0.00322266 0 -0.0644531 -0.0805664 -0.093457 -0.0418945 0.00966797 0.0386719 0.0773437 0.0451172 0.00322266 -0.0257812 -0.0580078 -0.0999023 -0.0805664 -0.0515625 -0.00322266 0.0225586 0.0483398 0.0483398 0.0225586 -0.0418945 -0.0805664 -0.0805664 -0.0999023 -0.0322266 0.0193359 0.0225586 0.0483398 0.0483398 0.0225586 -0.0257812 -0.0580078 -0.0837891 -0.0644531 -0.0418945 0 0.0225586 0.0483398 0.0225586 -0.00644531 -0.0257812 -0.0580078 -0.0741211 -0.0644531 -0.0418945 -0.0128906 0.0225586 0.0225586 0.00966797 -0.00322266 -0.0128906 -0.0128906 -0.0644531 -0.0644531 -0.0418945 -0.0225586 -0.00322266 0.0386719 0.0612305 0.0225586 -0.00322266 -0.0515625 -0.0741211 -0.0644531 -0.0515625 -0.0128906 -0.00322266 0.0386719 0.0386719 0.0225586 -0.00644531 -0.0418945 -0.0515625 -0.0644531 -0.0515625 -0.0128906 0.0193359 0.0354492 0.0225586 0.0225586 -0.00322266 -0.0322266 -0.0515625 -0.093457 -0.0418945 0 0.0225586 0.0386719 0.0483398 0.0225586 -0.00644531 -0.0515625 -0.0644531 -0.0644531 -0.0483398 -0.0128906 0.00322266 0.0612305 0.0612305 0.0193359 0 -0.0128906 -0.0644531 -0.0644531 -0.0418945 -0.0225586 -0.00322266 0.0386719 0.0612305 0.0225586 -0.00322266 -0.0515625 -0.0741211 -0.0644531 -0.0515625 -0.0128906 -0.00322266 0.0386719 0.0386719 0.0225586 -0.00644531 -0.0418945 -0.0515625 -0.0644531 -0.0515625 -0.0128906 0.0193359 0.0354492 0.0225586 0.0225586 -0.00322266 -0.0322266 -0.0515625 -0.093457 -0.0418945 0 0.0225586 0.0386719 0.0483398 0.0225586 -0.00644531 -0.0515625 -0.0644531 -0.0644531 -0.0483398 -0.0128906 0.00322266 0.0612305 0.0612305 0.0193359 -0.0225586 -0.0515625 -0.0644531 -0.0805664 -0.0644531 -0.00644531 0.0290039 0.0612305 0.0483398 0.0225586 -0.0257812 -0.0805664 -0.0805664 -0.0805664 -0.0483398 0 0.0483398 0.0612305 0.0483398 0.00966797 -0.0257812 -0.0515625 -0.0837891 -0.0805664 -0.0515625 0.00322266 0.0451172 0.0483398 0.0483398 -0.00322266 -0.0515625 -0.0580078 -0.0999023 -0.0805664 -0.0257812 -0.00322266 0.0386719 0.0612305 0.0290039 0.00966797 -0.0322266 -0.0580078 -0.0805664 -0.093457 -0.0515625 -0.00322266 0.0547852 0.0773437 0.0547852 0.00322266 0 -0.0515625 -0.0644531 -0.0805664 -0.0644531 -0.00644531 0.0290039 0.0612305 0.0483398 0.0225586 -0.0257812 -0.0805664 -0.0805664 -0.0805664 -0.0483398 0 0.0483398 0.0612305 0.0483398 0.00966797 -0.0257812 -0.0515625 -0.0837891 -0.0805664 -0.0515625 0.00322266 0.0451172 0.0483398 0.0483398 -0.00322266 -0.0515625 -0.0580078 -0.0999023 -0.0805664 -0.0257812 -0.00322266 0.0386719 0.0612305 0.0290039 0.00966797 -0.0322266 -0.0580078 -0.0805664 -0.093457 -0.0515625 -0.00322266 0.0547852 0.0773437 0.0547852 0.00322266 -0.0257812 -0.0644531 -0.0837891 -0.0805664 -0.0483398 -0.00322266 0.0386719 0.0483398 0.0483398 0 -0.0483398 -0.0805664 -0.0805664 -0.0805664 -0.0515625 0 0.0290039 0.0483398 0.0451172 0.00966797 -0.0257812 -0.0644531 -0.0805664 -0.0644531 -0.0515625 -0.0128906 0.0451172 0.0483398 0.0386719 0.00322266 -0.0225586 -0.0580078 -0.0805664 -0.103125 -0.0805664 -0.0483398 0.0386719 0.0547852 0.0773437 0.0483398 0 -0.0257812 -0.0515625 -0.093457 -0.0418945 -0.0257812 0.0386719 0.0612305 0.0483398 0.00966797 0 -0.0644531 -0.0837891 -0.0805664 -0.0483398 -0.00322266 0.0386719 0.0483398 0.0483398 0 -0.0483398 -0.0805664 -0.0805664 -0.0805664 -0.0515625 0 0.0290039 0.0483398 0.0451172 0.00966797 -0.0257812 -0.0644531 -0.0805664 -0.0644531 -0.0515625 -0.0128906 0.0451172 0.0483398 0.0386719 0.00322266 -0.0225586 -0.0580078 -0.0805664 -0.103125 -0.0805664 -0.0483398 0.0386719 0.0547852 0.0773437 0.0483398 0 -0.0257812 -0.0515625 -0.093457 -0.0418945 -0.0257812 0.0386719 0.0612305 0.0483398 0.00966797 -0.0257812 -0.0515625 -0.0644531 -0.0483398 -0.0483398 -0.0257812 0.00322266 0.0354492 0.0386719 -0.00644531 -0.0418945 -0.0644531 -0.0580078 0.00966797 0.0386719 0.0386719 0.0451172 0.0451172 0.00322266 -0.0322266 -0.0805664 -0.0999023 -0.103125 -0.093457 -0.0741211 -0.0128906 0.0225586 0.0290039 0.0483398 0.0483398 -0.00322266 -0.0515625 -0.0805664 -0.0805664 -0.0644531 -0.0128906 0.0386719 0.0612305 0.0451172 -0.00322266 -0.0225586 -0.0805664 -0.0418945 -0.0644531 -0.0515625 -0.0386719 0.0225586 0.0966797 0.0966797 0.0483398 0 -0.0515625 -0.0644531 -0.0483398 -0.0483398 -0.0257812 0.00322266 0.0354492 0.0386719 -0.00644531 -0.0418945 -0.0644531 -0.0580078 0.00966797 0.0386719 0.0386719 0.0451172 0.0451172 0.00322266 -0.0322266 -0.0805664 -0.0999023 -0.103125 -0.093457 -0.0741211 -0.0128906 0.0225586 0.0290039 0.0483398 0.0483398 -0.00322266 -0.0515625 -0.0805664 -0.0805664 -0.0644531 -0.0128906 0.0386719 0.0612305 0.0451172 -0.00322266 -0.0225586 -0.0805664 -0.0418945 -0.0644531 -0.0515625 -0.0386719 0.0225586 0.0966797 0.0966797 0.0483398 0.0225586 0.00322266 0.0225586 -0.0128906 0.0193359 0 0.00322266 -0.0257812 -0.00644531 -0.0418945 -0.0515625 -0.0741211 -0.116016 -0.093457 -0.0128906 0.00966797 0.00966797 0.00966797 0 0.0290039 0.00966797 0.0290039 -0.0128906 -0.00322266 0.00966797 0.112793 0.0805664 0.0193359 -0.00322266 -0.093457 -0.161133 -0.219141 -0.257812 -0.203027 -0.00644531 0.0290039 0.0225586 0.0966797 0.203027 0.0999023 -0.0515625 -0.14502 -0.125684 -0.0644531 -0.0580078 0.0612305 0.125684 0.0193359 0.0612305 0.0612305 0 0.00322266 0.0225586 -0.0128906 0.0193359 0 0.00322266 -0.0257812 -0.00644531 -0.0418945 -0.0515625 -0.0741211 -0.116016 -0.093457 -0.0128906 0.00966797 0.00966797 0.00966797 0 0.0290039 0.00966797 0.0290039 -0.0128906 -0.00322266 0.00966797 0.112793 0.0805664 0.0193359 -0.00322266 -0.093457 -0.161133 -0.219141 -0.257812 -0.203027 -0.00644531 0.0290039 0.0225586 0.0966797 0.203027 0.0999023 -0.0515625 -0.14502 -0.125684 -0.0644531 -0.0580078 0.0612305 0.125684 0.0193359 0.0612305 0.0612305 0.0225586 -0.0580078 -0.116016 -0.128906 -0.0580078 -0.00322266 0.0386719 0.0966797 0.0999023 0.0225586 -0.0580078 -0.257812 -0.270703 -0.116016 -0.0257812 0.0386719 0.0902344 0.180469 0.228809 0.228809 0.0902344 -0.0257812 -0.25459 -0.20625 -0.20625 -0.0837891 -0.0644531 -0.093457 -0.0515625 -0.093457 -0.161133 -0.232031 -0.103125 -0.0257812 0.15791 0.180469 0.180469 0.122461 0.0225586 -0.0999023 -0.219141 -0.4125 -0.425391 -0.299707 0.0225586 0.0773437 0.0483398 0.0193359 -0.103125 -0.219141 0 -0.0580078 -0.116016 -0.128906 -0.0580078 -0.00322266 0.0386719 0.0966797 0.0999023 0.0225586 -0.0580078 -0.257812 -0.270703 -0.116016 -0.0257812 0.0386719 0.0902344 0.180469 0.228809 0.228809 0.0902344 -0.0257812 -0.25459 -0.20625 -0.20625 -0.0837891 -0.0644531 -0.093457 -0.0515625 -0.093457 -0.161133 -0.232031 -0.103125 -0.0257812 0.15791 0.180469 0.180469 0.122461 0.0225586 -0.0999023 -0.219141 -0.4125 -0.425391 -0.299707 0.0225586 0.0773437 0.0483398 0.0193359 -0.103125 -0.219141 -0.264258 -0.257812 0.0612305 0.25459 0.141797 0 -0.0580078 -0.0418945 -0.128906 -0.20625 -0.257812 -0.270703 -0.167578 0 0.154687 0.360937 0.409277 0.386719 0.251367 0.0773437 -0.00644531 -0.15791 -0.286816 -0.25459 -0.196582 -0.167578 -0.128906 -0.0257812 -0.0128906 -0.0225586 -0.128906 -0.257812 -0.367383 -0.322266 -0.183691 -0.10957 -0.0257812 -0.0515625 -0.0644531 -0.257812 -0.435059 -0.528516 -0.402832 -0.167578 -0.0257812 0.122461 0.0547852 -0.0805664 -0.232031 -0.167578 0 -0.257812 0.0612305 0.25459 0.141797 0 -0.0580078 -0.0418945 -0.128906 -0.20625 -0.257812 -0.270703 -0.167578 0 0.154687 0.360937 0.409277 0.386719 0.251367 0.0773437 -0.00644531 -0.15791 -0.286816 -0.25459 -0.196582 -0.167578 -0.128906 -0.0257812 -0.0128906 -0.0225586 -0.128906 -0.257812 -0.367383 -0.322266 -0.183691 -0.10957 -0.0257812 -0.0515625 -0.0644531 -0.257812 -0.435059 -0.528516 -0.402832 -0.167578 -0.0257812 0.122461 0.0547852 -0.0805664 -0.232031 -0.167578 -0.196582 -0.257812 -0.177246 -0.0515625 0.0805664 0.235254 0.554297 0.66709 0.489844 0.125684 -0.161133 -0.322266 -0.35127 -0.232031 0.0225586 0.154687 0.228809 0.309375 0.309375 0.193359 0.215918 0.435059 0.30293 0.0966797 -0.20625 -0.286816 -0.219141 0.0773437 0.183691 0.106348 0.00966797 -0.0257812 -0.0418945 0.0483398 0.154687 0.435059 0.641309 0.628418 0.799219 0.512402 0.309375 0.0225586 -0.161133 -0.183691 0.00966797 0.525293 0.870117 1.07959 0.783105 0.0225586 0 -0.257812 -0.177246 -0.0515625 0.0805664 0.235254 0.554297 0.66709 0.489844 0.125684 -0.161133 -0.322266 -0.35127 -0.232031 0.0225586 0.154687 0.228809 0.309375 0.309375 0.193359 0.215918 0.435059 0.30293 0.0966797 -0.20625 -0.286816 -0.219141 0.0773437 0.183691 0.106348 0.00966797 -0.0257812 -0.0418945 0.0483398 0.154687 0.435059 0.641309 0.628418 0.799219 0.512402 0.309375 0.0225586 -0.161133 -0.183691 0.00966797 0.525293 0.870117 1.07959 0.783105 0.0225586 0.0773437 0.512402 0.360937 0.370605 0.26748 0.25459 0.331934 0.451172 0.409277 0.489844 0.228809 -0.0547852 0.203027 0.525293 0.154687 0.0999023 -0.257812 -0.683203 -0.699316 -0.264258 -0.161133 0.0483398 0.122461 0.386719 0.0999023 -0.563965 -0.815332 0.924902 1.43086 0.66709 -1.03125 -1.65 -1.65 -0.438281 0.731543 0.825 0.174023 -1.21494 -1.65 -0.941016 1.56943 1.62744 1.62422 1.63711 -1.65 -1.65 -1.65 1.62422 1.62744 1.62744 0 0.512402 0.360937 0.370605 0.26748 0.25459 0.331934 0.451172 0.409277 0.489844 0.228809 -0.0547852 0.203027 0.525293 0.154687 0.0999023 -0.257812 -0.683203 -0.699316 -0.264258 -0.161133 0.0483398 0.122461 0.386719 0.0999023 -0.563965 -0.815332 0.924902 1.43086 0.66709 -1.03125 -1.65 -1.65 -0.438281 0.731543 0.825 0.174023 -1.21494 -1.65 -0.941016 1.56943 1.62744 1.62422 1.63711 -1.65 -1.65 -1.65 1.62422 1.62744 1.62744 -1.14082 -1.65 -1.65 -1.61133 0.567187 1.2375 1.32773 0.457617 -0.20625 0.183691 -0.20625 -1.00869 -1.11182 -1.19238 0.125684 1.42119 0.825 -0.20625 -0.625195 -0.0805664 0.26748 0.406055 -0.393164 -0.621973 -0.493066 -0.14502 0.283594 0.286816 0.25459 0.312598 0.399609 0.112793 -0.286816 -0.167578 -0.0999023 0.125684 0.203027 0.228809 0.203027 0.180469 0.0805664 -0.0128906 -0.0515625 -0.0418945 0.0612305 0.203027 0.25459 0.261035 0.286816 0.283594 0 -1.65 -1.65 -1.61133 0.567187 1.2375 1.32773 0.457617 -0.20625 0.183691 -0.20625 -1.00869 -1.11182 -1.19238 0.125684 1.42119 0.825 -0.20625 -0.625195 -0.0805664 0.26748 0.406055 -0.393164 -0.621973 -0.493066 -0.14502 0.283594 0.286816 0.25459 0.312598 0.399609 0.112793 -0.286816 -0.167578 -0.0999023 0.125684 0.203027 0.228809 0.203027 0.180469 0.0805664 -0.0128906 -0.0515625 -0.0418945 0.0612305 0.203027 0.25459 0.261035 0.286816 0.283594 0.154687 -0.0418945 -0.257812 -0.232031 0.00322266 0.203027 0.489844 0.605859 0.180469 -0.10957 -0.238477 -0.0515625 -0.0805664 0.0902344 0.112793 0.0902344 0.0451172 0.406055 0.538184 0.0483398 -0.36416 -0.4125 -0.20625 -0.14502 -0.0128906 0.154687 0.331934 0.380273 0.309375 0.199805 0.00966797 -0.0483398 -0.0837891 -0.093457 -0.0418945 -0.0225586 0.154687 0.26748 0.25459 0.193359 0.0773437 0.00966797 -0.0418945 0.0483398 0.26748 0.586523 0.773438 0.847559 0.828223 0.67998 0 -0.0418945 -0.257812 -0.232031 0.00322266 0.203027 0.489844 0.605859 0.180469 -0.10957 -0.238477 -0.0515625 -0.0805664 0.0902344 0.112793 0.0902344 0.0451172 0.406055 0.538184 0.0483398 -0.36416 -0.4125 -0.20625 -0.14502 -0.0128906 0.154687 0.331934 0.380273 0.309375 0.199805 0.00966797 -0.0483398 -0.0837891 -0.093457 -0.0418945 -0.0225586 0.154687 0.26748 0.25459 0.193359 0.0773437 0.00966797 -0.0418945 0.0483398 0.26748 0.586523 0.773438 0.847559 0.828223 0.67998 0.538184 0.525293 0.538184 0.489844 0.538184 0.50918 0.67998 0.792773 0.783105 0.825 0.825 0.744434 0.773438 0.902344 1.07959 1.15371 1.28584 1.17949 1.06992 0.87334 0.621973 0.47373 0.406055 0.309375 0.319043 0.360937 0.435059 0.489844 0.409277 0.25459 0.0773437 -0.0999023 -0.183691 -0.219141 -0.14502 -0.0225586 0.0773437 0.0386719 -0.0322266 -0.20625 -0.409277 -0.515625 -0.580078 -0.515625 -0.389941 -0.261035 -0.15791 -0.167578 -0.232031 -0.402832 0 0.525293 0.538184 0.489844 0.538184 0.50918 0.67998 0.792773 0.783105 0.825 0.825 0.744434 0.773438 0.902344 1.07959 1.15371 1.28584 1.17949 1.06992 0.87334 0.621973 0.47373 0.406055 0.309375 0.319043 0.360937 0.435059 0.489844 0.409277 0.25459 0.0773437 -0.0999023 -0.183691 -0.219141 -0.14502 -0.0225586 0.0773437 0.0386719 -0.0322266 -0.20625 -0.409277 -0.515625 -0.580078 -0.515625 -0.389941 -0.261035 -0.15791 -0.167578 -0.232031 -0.402832 -0.573633 -0.734766 -0.77666 -0.744434 -0.621973 -0.438281 -0.290039 -0.232031 -0.335156 -0.493066 -0.641309 -0.77666 -0.734766 -0.621973 -0.4125 -0.270703 -0.20625 -0.20625 -0.312598 -0.464062 -0.631641 -0.734766 -0.744434 -0.641309 -0.476953 -0.312598 -0.167578 -0.125684 -0.167578 -0.312598 -0.476953 -0.599414 -0.621973 -0.528516 -0.36416 -0.196582 -0.0257812 0.0225586 -0.0515625 -0.20625 -0.35127 -0.464062 -0.515625 -0.476953 -0.312598 -0.128906 0.0386719 0.0773437 0.0225586 -0.125684 0 -0.734766 -0.77666 -0.744434 -0.621973 -0.438281 -0.290039 -0.232031 -0.335156 -0.493066 -0.641309 -0.77666 -0.734766 -0.621973 -0.4125 -0.270703 -0.20625 -0.20625 -0.312598 -0.464062 -0.631641 -0.734766 -0.744434 -0.641309 -0.476953 -0.312598 -0.167578 -0.125684 -0.167578 -0.312598 -0.476953 -0.599414 -0.621973 -0.528516 -0.36416 -0.196582 -0.0257812 0.0225586 -0.0515625 -0.20625 -0.35127 -0.464062 -0.515625 -0.476953 -0.312598 -0.128906 0.0386719 0.0773437 0.0225586 -0.125684 -0.290039 -0.438281 -0.425391 -0.36416 -0.20625 -0.0128906 0.0999023 0.141797 0.0773437 -0.0999023 -0.257812 -0.35127 -0.389941 -0.35127 -0.248145 -0.0515625 0.0999023 0.125684 0.0773437 -0.0805664 -0.232031 -0.36416 -0.402832 -0.335156 -0.196582 -0.0257812 0.0902344 0.122461 0.0773437 -0.0644531 -0.203027 -0.322266 -0.35127 -0.286816 -0.15791 -0.00322266 0.0999023 0.141797 0.0999023 -0.0257812 -0.15791 -0.270703 -0.312598 -0.257812 -0.15791 -0.00644531 0.0902344 0.164355 0.125684 0.0225586 0 -0.438281 -0.425391 -0.36416 -0.20625 -0.0128906 0.0999023 0.141797 0.0773437 -0.0999023 -0.257812 -0.35127 -0.389941 -0.35127 -0.248145 -0.0515625 0.0999023 0.125684 0.0773437 -0.0805664 -0.232031 -0.36416 -0.402832 -0.335156 -0.196582 -0.0257812 0.0902344 0.122461 0.0773437 -0.0644531 -0.203027 -0.322266 -0.35127 -0.286816 -0.15791 -0.00322266 0.0999023 0.141797 0.0999023 -0.0257812 -0.15791 -0.270703 -0.312598 -0.257812 -0.15791 -0.00644531 0.0902344 0.164355 0.125684 0.0225586 -0.14502 -0.248145 -0.248145 -0.232031 -0.196582 -0.0418945 0.0612305 0.0999023 0.0773437 -0.00644531 -0.128906 -0.232031 -0.286816 -0.257812 -0.15791 -0.0128906 0.0966797 0.141797 0.0999023 0 -0.125684 -0.15791 -0.177246 -0.170801 -0.10957 -0.0515625 0.00322266 0.0547852 0.00966797 -0.0418945 -0.135352 -0.186914 -0.161133 -0.125684 -0.0257812 0.141797 0.193359 0.141797 -0.00644531 -0.151465 -0.257812 -0.312598 -0.335156 -0.31582 -0.203027 -0.0418945 0.0547852 0.183691 0.203027 0.164355 0 -0.248145 -0.248145 -0.232031 -0.196582 -0.0418945 0.0612305 0.0999023 0.0773437 -0.00644531 -0.128906 -0.232031 -0.286816 -0.257812 -0.15791 -0.0128906 0.0966797 0.141797 0.0999023 0 -0.125684 -0.15791 -0.177246 -0.170801 -0.10957 -0.0515625 0.00322266 0.0547852 0.00966797 -0.0418945 -0.135352 -0.186914 -0.161133 -0.125684 -0.0257812 0.141797 0.193359 0.141797 -0.00644531 -0.151465 -0.257812 -0.312598 -0.335156 -0.31582 -0.203027 -0.0418945 0.0547852 0.183691 0.203027 0.164355 0.0547852 -0.15791 -0.312598 -0.270703 -0.183691 -0.103125 -0.0128906 0.0612305 0.0773437 0.0225586 -0.0805664 -0.167578 -0.20625 -0.14502 -0.0257812 0.0902344 0.180469 0.148242 0.0612305 -0.0128906 -0.128906 -0.20625 -0.248145 -0.196582 -0.0418945 0.0902344 0.203027 0.164355 0.0999023 0.0451172 -0.125684 -0.238477 -0.270703 -0.270703 -0.161133 -0.00644531 0.0999023 0.141797 0.0999023 -0.00644531 -0.093457 -0.161133 -0.20625 -0.196582 -0.125684 -0.0257812 0.0773437 0.125684 0.0773437 -0.00322266 0 -0.15791 -0.312598 -0.270703 -0.183691 -0.103125 -0.0128906 0.0612305 0.0773437 0.0225586 -0.0805664 -0.167578 -0.20625 -0.14502 -0.0257812 0.0902344 0.180469 0.148242 0.0612305 -0.0128906 -0.128906 -0.20625 -0.248145 -0.196582 -0.0418945 0.0902344 0.203027 0.164355 0.0999023 0.0451172 -0.125684 -0.238477 -0.270703 -0.270703 -0.161133 -0.00644531 0.0999023 0.141797 0.0999023 -0.00644531 -0.093457 -0.161133 -0.20625 -0.196582 -0.125684 -0.0257812 0.0773437 0.125684 0.0773437 -0.00322266 -0.0837891 -0.167578 -0.20625 -0.177246 -0.093457 0 0.0773437 0.0966797 0.0773437 0 -0.0515625 -0.151465 -0.14502 -0.128906 -0.0644531 0.0225586 0.0805664 0.0999023 0.0805664 0.00966797 -0.0515625 -0.116016 -0.14502 -0.116016 -0.0257812 0.0225586 0.0612305 0.0999023 0.0902344 0.0386719 -0.00644531 -0.0547852 -0.0805664 -0.0644531 -0.0257812 0.0483398 0.0902344 0.0966797 0.0773437 0.0225586 -0.0644531 -0.0999023 -0.10957 -0.128906 -0.093457 -0.0257812 0.0773437 0.0999023 0.0773437 0.00322266 0 -0.167578 -0.20625 -0.177246 -0.093457 0 0.0773437 0.0966797 0.0773437 0 -0.0515625 -0.151465 -0.14502 -0.128906 -0.0644531 0.0225586 0.0805664 0.0999023 0.0805664 0.00966797 -0.0515625 -0.116016 -0.14502 -0.116016 -0.0257812 0.0225586 0.0612305 0.0999023 0.0902344 0.0386719 -0.00644531 -0.0547852 -0.0805664 -0.0644531 -0.0257812 0.0483398 0.0902344 0.0966797 0.0773437 0.0225586 -0.0644531 -0.0999023 -0.10957 -0.128906 -0.093457 -0.0257812 0.0773437 0.0999023 0.0773437 0.00322266 -0.0644531 -0.0999023 -0.128906 -0.15791 -0.128906 -0.103125 -0.0837891 -0.0644531 -0.0644531 -0.0805664 -0.128906 -0.167578 -0.183691 -0.161133 -0.14502 -0.0837891 -0.0515625 -0.00322266 -0.0257812 -0.0483398 -0.0805664 -0.103125 -0.093457 -0.103125 -0.0805664 -0.0741211 -0.0483398 -0.0128906 -0.0257812 0.00966797 -0.0257812 -0.0483398 -0.0515625 -0.116016 -0.0837891 -0.0257812 -0.0128906 0.00966797 0.00966797 0.0225586 0.00966797 -0.0128906 -0.0483398 -0.0515625 -0.0515625 -0.0418945 -0.0418945 0 0.0225586 0.0225586 0 -0.0999023 -0.128906 -0.15791 -0.128906 -0.103125 -0.0837891 -0.0644531 -0.0644531 -0.0805664 -0.128906 -0.167578 -0.183691 -0.161133 -0.14502 -0.0837891 -0.0515625 -0.00322266 -0.0257812 -0.0483398 -0.0805664 -0.103125 -0.093457 -0.103125 -0.0805664 -0.0741211 -0.0483398 -0.0128906 -0.0257812 0.00966797 -0.0257812 -0.0483398 -0.0515625 -0.116016 -0.0837891 -0.0257812 -0.0128906 0.00966797 0.00966797 0.0225586 0.00966797 -0.0128906 -0.0483398 -0.0515625 -0.0515625 -0.0418945 -0.0418945 0 0.0225586 0.0225586 0.0193359 0.00322266 -0.0257812 -0.0322266 -0.0483398 -0.0418945 -0.0418945 -0.00644531 -0.00322266 0.00322266 -0.00322266 -0.0128906 -0.0515625 -0.0580078 -0.0580078 -0.0837891 -0.0741211 -0.0418945 -0.0483398 -0.0225586 -0.0257812 -0.0515625 -0.0418945 -0.0644531 -0.093457 -0.0515625 -0.0322266 -0.00322266 -0.00322266 0.00966797 0.0225586 -0.0257812 -0.0580078 -0.0515625 -0.0515625 -0.0741211 -0.0418945 -0.0257812 0.00322266 0.0225586 0.00322266 -0.00322266 -0.0257812 -0.0515625 -0.0515625 -0.0483398 -0.0805664 -0.0257812 -0.00644531 0 0 0.00322266 -0.0257812 -0.0322266 -0.0483398 -0.0418945 -0.0418945 -0.00644531 -0.00322266 0.00322266 -0.00322266 -0.0128906 -0.0515625 -0.0580078 -0.0580078 -0.0837891 -0.0741211 -0.0418945 -0.0483398 -0.0225586 -0.0257812 -0.0515625 -0.0418945 -0.0644531 -0.093457 -0.0515625 -0.0322266 -0.00322266 -0.00322266 0.00966797 0.0225586 -0.0257812 -0.0580078 -0.0515625 -0.0515625 -0.0741211 -0.0418945 -0.0257812 0.00322266 0.0225586 0.00322266 -0.00322266 -0.0257812 -0.0515625 -0.0515625 -0.0483398 -0.0805664 -0.0257812 -0.00644531 0 0.0225586 -0.0257812 -0.0515625 -0.0580078 -0.0644531 -0.0547852 -0.0225586 -0.00644531 0.00966797 0.00966797 -0.00322266 -0.0257812 -0.0515625 -0.0580078 -0.0483398 -0.0515625 -0.0418945 0.0225586 0.00966797 -0.00322266 0.00322266 -0.0418945 -0.0515625 -0.0580078 -0.0257812 -0.0128906 0.00322266 0.0225586 0.0225586 0.0225586 0.00322266 -0.0418945 -0.0644531 -0.0676758 -0.0515625 -0.0483398 0 0.0225586 0.0225586 0.0225586 -0.00644531 -0.0515625 -0.0741211 -0.0999023 -0.0515625 -0.0483398 -0.0128906 0.0225586 0.0225586 0.0225586 0 -0.0257812 -0.0515625 -0.0580078 -0.0644531 -0.0547852 -0.0225586 -0.00644531 0.00966797 0.00966797 -0.00322266 -0.0257812 -0.0515625 -0.0580078 -0.0483398 -0.0515625 -0.0418945 0.0225586 0.00966797 -0.00322266 0.00322266 -0.0418945 -0.0515625 -0.0580078 -0.0257812 -0.0128906 0.00322266 0.0225586 0.0225586 0.0225586 0.00322266 -0.0418945 -0.0644531 -0.0676758 -0.0515625 -0.0483398 0 0.0225586 0.0225586 0.0225586 -0.00644531 -0.0515625 -0.0741211 -0.0999023 -0.0515625 -0.0483398 -0.0128906 0.0225586 0.0225586 0.0225586 -0.0225586 -0.0580078 -0.093457 -0.0805664 -0.0805664 -0.0418945 0.00322266 0.0451172 0.0386719 0.0193359 -0.0257812 -0.0515625 -0.0805664 -0.103125 -0.0741211 -0.00322266 0.0225586 0.0386719 0.0451172 0.0225586 -0.0257812 -0.0644531 -0.093457 -0.0741211 -0.0515625 -0.00322266 0.0225586 0.0451172 0.0451172 0 -0.0128906 -0.0644531 -0.093457 -0.0805664 -0.0515625 -0.0225586 0.0225586 0.0612305 0.0483398 0.00966797 -0.0418945 -0.0515625 -0.0805664 -0.103125 -0.0805664 -0.0257812 -0.00322266 0.0225586 0.0225586 -0.00322266 0 -0.0580078 -0.093457 -0.0805664 -0.0805664 -0.0418945 0.00322266 0.0451172 0.0386719 0.0193359 -0.0257812 -0.0515625 -0.0805664 -0.103125 -0.0741211 -0.00322266 0.0225586 0.0386719 0.0451172 0.0225586 -0.0257812 -0.0644531 -0.093457 -0.0741211 -0.0515625 -0.00322266 0.0225586 0.0451172 0.0451172 0 -0.0128906 -0.0644531 -0.093457 -0.0805664 -0.0515625 -0.0225586 0.0225586 0.0612305 0.0483398 0.00966797 -0.0418945 -0.0515625 -0.0805664 -0.103125 -0.0805664 -0.0257812 -0.00322266 0.0225586 0.0225586 -0.00322266 -0.0128906 -0.0515625 -0.0837891 -0.10957 -0.0580078 -0.0257812 0.00966797 0.0225586 0.0451172 0.0193359 -0.00644531 -0.0580078 -0.0805664 -0.0805664 -0.0644531 -0.0386719 -0.00644531 0.00966797 0.0225586 0.00966797 -0.0128906 -0.0257812 -0.0515625 -0.0515625 -0.0483398 -0.0483398 -0.0128906 -0.0128906 0.0290039 0.0386719 -0.00644531 -0.0257812 -0.0580078 -0.0644531 -0.0515625 -0.0483398 -0.0257812 0.00966797 0.0225586 0.0225586 0.00966797 -0.0257812 -0.0322266 -0.0515625 -0.0580078 -0.0483398 -0.0225586 0.00322266 0.0225586 0.00966797 0 -0.0515625 -0.0837891 -0.10957 -0.0580078 -0.0257812 0.00966797 0.0225586 0.0451172 0.0193359 -0.00644531 -0.0580078 -0.0805664 -0.0805664 -0.0644531 -0.0386719 -0.00644531 0.00966797 0.0225586 0.00966797 -0.0128906 -0.0257812 -0.0515625 -0.0515625 -0.0483398 -0.0483398 -0.0128906 -0.0128906 0.0290039 0.0386719 -0.00644531 -0.0257812 -0.0580078 -0.0644531 -0.0515625 -0.0483398 -0.0257812 0.00966797 0.0225586 0.0225586 0.00966797 -0.0257812 -0.0322266 -0.0515625 -0.0580078 -0.0483398 -0.0225586 0.00322266 0.0225586 0.00966797 0.00322266 -0.0225586 -0.0418945 -0.0580078 -0.0644531 -0.0515625 -0.0128906 0 0.0225586 0.0386719 0 -0.0128906 -0.0515625 -0.0644531 -0.0644531 -0.0257812 -0.0128906 0 0.0225586 0.0225586 -0.00644531 -0.0257812 -0.0644531 -0.0805664 -0.0644531 -0.0386719 -0.00322266 0.0225586 0.0225586 0.0225586 0 -0.0257812 -0.0515625 -0.0515625 -0.0515625 -0.0257812 -0.0128906 0.0193359 0.0386719 0.0225586 0.00966797 -0.0257812 -0.0805664 -0.0547852 -0.0580078 -0.0257812 0.00322266 0.0225586 0.0386719 0.0225586 0 -0.0225586 -0.0418945 -0.0580078 -0.0644531 -0.0515625 -0.0128906 0 0.0225586 0.0386719 0 -0.0128906 -0.0515625 -0.0644531 -0.0644531 -0.0257812 -0.0128906 0 0.0225586 0.0225586 -0.00644531 -0.0257812 -0.0644531 -0.0805664 -0.0644531 -0.0386719 -0.00322266 0.0225586 0.0225586 0.0225586 0 -0.0257812 -0.0515625 -0.0515625 -0.0515625 -0.0257812 -0.0128906 0.0193359 0.0386719 0.0225586 0.00966797 -0.0257812 -0.0805664 -0.0547852 -0.0580078 -0.0257812 0.00322266 0.0225586 0.0386719 0.0225586 -0.00644531 -0.0257812 -0.0644531 -0.0805664 -0.0580078 -0.0257812 0 0.0225586 0.0225586 0.0225586 0.00966797 -0.0257812 -0.0676758 -0.0805664 -0.0515625 -0.0515625 0.00966797 0.0354492 0.0451172 0.0225586 -0.0128906 -0.0418945 -0.0644531 -0.0805664 -0.0644531 -0.0257812 -0.0225586 0.0225586 0.0225586 0.00966797 -0.0128906 -0.0418945 -0.0515625 -0.0515625 -0.0483398 -0.0322266 -0.00322266 0.00966797 0.0290039 0.0225586 -0.0128906 -0.0418945 -0.0515625 -0.0580078 -0.0515625 -0.0418945 0.00966797 0.0225586 0.0451172 0.00966797 0 -0.0257812 -0.0644531 -0.0805664 -0.0580078 -0.0257812 0 0.0225586 0.0225586 0.0225586 0.00966797 -0.0257812 -0.0676758 -0.0805664 -0.0515625 -0.0515625 0.00966797 0.0354492 0.0451172 0.0225586 -0.0128906 -0.0418945 -0.0644531 -0.0805664 -0.0644531 -0.0257812 -0.0225586 0.0225586 0.0225586 0.00966797 -0.0128906 -0.0418945 -0.0515625 -0.0515625 -0.0483398 -0.0322266 -0.00322266 0.00966797 0.0290039 0.0225586 -0.0128906 -0.0418945 -0.0515625 -0.0580078 -0.0515625 -0.0418945 0.00966797 0.0225586 0.0451172 0.00966797 -0.0257812 -0.0322266 -0.0515625 -0.0644531 -0.093457 -0.0483398 0.00322266 0.0483398 0.0225586 0.00966797 -0.00322266 -0.0483398 -0.0644531 -0.0580078 -0.0805664 -0.0257812 -0.00322266 0.0386719 0.0386719 0.0225586 0 -0.0418945 -0.0741211 -0.0741211 -0.0644531 -0.0257812 0.00322266 0.0225586 0.0225586 0.0290039 -0.00322266 -0.0418945 -0.0741211 -0.0644531 -0.0515625 -0.0257812 -0.00644531 0.0225586 0.0225586 0.0225586 -0.00322266 -0.0515625 -0.0644531 -0.0805664 -0.0515625 -0.0386719 -0.0257812 0.0451172 0.0225586 0.00966797 0 -0.0322266 -0.0515625 -0.0644531 -0.093457 -0.0483398 0.00322266 0.0483398 0.0225586 0.00966797 -0.00322266 -0.0483398 -0.0644531 -0.0580078 -0.0805664 -0.0257812 -0.00322266 0.0386719 0.0386719 0.0225586 0 -0.0418945 -0.0741211 -0.0741211 -0.0644531 -0.0257812 0.00322266 0.0225586 0.0225586 0.0290039 -0.00322266 -0.0418945 -0.0741211 -0.0644531 -0.0515625 -0.0257812 -0.00644531 0.0225586 0.0225586 0.0225586 -0.00322266 -0.0515625 -0.0644531 -0.0805664 -0.0515625 -0.0386719 -0.0257812 0.0451172 0.0225586 0.00966797 -0.0225586 -0.0418945 -0.0741211 -0.0805664 -0.0515625 -0.0257812 0.00322266 0.0225586 0.0386719 0.00966797 -0.0128906 -0.0418945 -0.0580078 -0.0580078 -0.0515625 -0.0418945 0.00322266 0.0386719 0.0483398 0 -0.0128906 -0.0322266 -0.0644531 -0.0580078 -0.0805664 -0.0483398 -0.0128906 0.0225586 0.00966797 0.0225586 -0.00644531 -0.0386719 -0.0805664 -0.0515625 -0.0547852 -0.0257812 -0.00322266 0.00966797 0.0225586 0.0225586 -0.0128906 -0.0257812 -0.0676758 -0.0644531 -0.0580078 -0.0322266 0 0.0290039 0.0225586 0.00322266 0 -0.0418945 -0.0741211 -0.0805664 -0.0515625 -0.0257812 0.00322266 0.0225586 0.0386719 0.00966797 -0.0128906 -0.0418945 -0.0580078 -0.0580078 -0.0515625 -0.0418945 0.00322266 0.0386719 0.0483398 0 -0.0128906 -0.0322266 -0.0644531 -0.0580078 -0.0805664 -0.0483398 -0.0128906 0.0225586 0.00966797 0.0225586 -0.00644531 -0.0386719 -0.0805664 -0.0515625 -0.0547852 -0.0257812 -0.00322266 0.00966797 0.0225586 0.0225586 -0.0128906 -0.0257812 -0.0676758 -0.0644531 -0.0580078 -0.0322266 0 0.0290039 0.0225586 0.00322266 -0.0128906 -0.0225586 -0.0515625 -0.0805664 -0.0515625 -0.0257812 0 0.00966797 0.0193359 0.0225586 -0.00644531 -0.0257812 -0.0515625 -0.0644531 -0.0805664 -0.0257812 0.00322266 0.0225586 0.0386719 0.0225586 -0.00322266 -0.0418945 -0.0483398 -0.0644531 -0.0644531 -0.0257812 0 0.00966797 0.0225586 0.00966797 0.00322266 -0.0257812 -0.0580078 -0.0515625 -0.0644531 -0.0418945 -0.00322266 0.0225586 0.0225586 0.0386719 0 -0.0225586 -0.0644531 -0.0644531 -0.0644531 -0.0225586 0.0225586 0.0225586 0.0225586 0.00966797 0 -0.0225586 -0.0515625 -0.0805664 -0.0515625 -0.0257812 0 0.00966797 0.0193359 0.0225586 -0.00644531 -0.0257812 -0.0515625 -0.0644531 -0.0805664 -0.0257812 0.00322266 0.0225586 0.0386719 0.0225586 -0.00322266 -0.0418945 -0.0483398 -0.0644531 -0.0644531 -0.0257812 0 0.00966797 0.0225586 0.00966797 0.00322266 -0.0257812 -0.0580078 -0.0515625 -0.0644531 -0.0418945 -0.00322266 0.0225586 0.0225586 0.0386719 0 -0.0225586 -0.0644531 -0.0644531 -0.0644531 -0.0225586 0.0225586 0.0225586 0.0225586 0.00966797 -0.00644531 -0.0418945 -0.0515625 -0.0483398 -0.0644531 -0.0257812 0.00322266 0.0386719 0.00966797 0.0451172 -0.00322266 -0.0418945 -0.0644531 -0.0644531 -0.0805664 -0.0257812 0 0.0386719 0.0386719 0.0225586 0 -0.0483398 -0.0515625 -0.0644531 -0.0644531 -0.0257812 0.00966797 0.0483398 0.0225586 0.00966797 -0.0225586 -0.0322266 -0.0515625 -0.0644531 -0.0837891 -0.0257812 -0.00644531 0.0225586 0.0225586 0.0290039 0 -0.0257812 -0.0547852 -0.0805664 -0.0644531 -0.0257812 0 0.0290039 0.0386719 0.0225586 0 -0.0418945 -0.0515625 -0.0483398 -0.0644531 -0.0257812 0.00322266 0.0386719 0.00966797 0.0451172 -0.00322266 -0.0418945 -0.0644531 -0.0644531 -0.0805664 -0.0257812 0 0.0386719 0.0386719 0.0225586 0 -0.0483398 -0.0515625 -0.0644531 -0.0644531 -0.0257812 0.00966797 0.0483398 0.0225586 0.00966797 -0.0225586 -0.0322266 -0.0515625 -0.0644531 -0.0837891 -0.0257812 -0.00644531 0.0225586 0.0225586 0.0290039 0 -0.0257812 -0.0547852 -0.0805664 -0.0644531 -0.0257812 0 0.0290039 0.0386719 0.0225586 -0.0128906 -0.0257812 -0.0805664 -0.0644531 -0.0515625 -0.0257812 0.00322266 0.0193359 0.00966797 0.0225586 -0.00644531 -0.0483398 -0.0644531 -0.0644531 -0.0580078 -0.0515625 -0.0128906 0.0386719 0.0225586 0.0193359 -0.00322266 -0.0257812 -0.0515625 -0.0515625 -0.093457 -0.0322266 0 0.00322266 0.00322266 0.00966797 0.00966797 -0.0257812 -0.0515625 -0.0580078 -0.0644531 -0.0418945 0 0.0225586 0.0225586 0.0225586 -0.00322266 -0.0257812 -0.0547852 -0.0515625 -0.0483398 -0.0515625 -0.0128906 0.0386719 0.0386719 0.0386719 0 