-0.093457 -0.0805664 -0.0515625 -0.00322266 0.0386719 0.0483398 0.0483398 0.0225586 -0.0225586 -0.0580078 -0.0837891 -0.0805664 -0.0515625 -0.0128906 0.0225586 0.0547852 0.0483398 0.0225586 -0.0128906 -0.0644531 -0.0837891 -0.093457 -0.0580078 -0.00644531 0.0225586 0.0483398 0.0483398 0.0386719 -0.0128906 -0.0515625 -0.0805664 -0.0837891 -0.0547852 -0.0128906 0.0193359 0.0451172 0.0386719 0.0386719 -0.0128906 -0.0644531 -0.093457 -0.0805664 -0.0418945 -0.0128906 0.0193359 0.0483398 0.0483398 0.0386719 -0.00644531 -0.0515625 -0.0837891 -0.0805664 -0.0483398 -0.00322266 0.0193359 0.0451172 0.0483398 0.0225586 -0.0128906 -0.0515625 -0.0805664 -0.0805664 -0.0515625 -0.00322266 0.0225586 0.0483398 0.0483398 0.0290039 -0.00322266 -0.0515625 -0.0837891 -0.093457 -0.0644531 -0.0128906 0.0225586 0.0483398 0.0612305 0.0386719 -0.0128906 -0.0644531 -0.0999023 -0.0805664 -0.0515625 -0.00322266 0.0225586 0.0483398 0.0451172 0.0386719 -0.0128906 -0.0515625 -0.0805664 -0.0805664 -0.0580078 -0.00322266 0.0386719 0.0483398 0.0483398 0.0386719 -0.00322266 0 -0.0837891 -0.0805664 -0.0483398 -0.00322266 0.0193359 0.0451172 0.0483398 0.0225586 -0.0128906 -0.0515625 -0.0805664 -0.0805664 -0.0515625 -0.00322266 0.0225586 0.0483398 0.0483398 0.0290039 -0.00322266 -0.0515625 -0.0837891 -0.093457 -0.0644531 -0.0128906 0.0225586 0.0483398 0.0612305 0.0386719 -0.0128906 -0.0644531 -0.0999023 -0.0805664 -0.0515625 -0.00322266 0.0225586 0.0483398 0.0451172 0.0386719 -0.0128906 -0.0515625 -0.0805664 -0.0805664 -0.0580078 -0.00322266 0.0386719 0.0483398 0.0483398 0.0386719 -0.00322266 -0.0580078 -0.093457 -0.0999023 -0.0483398 -0.00322266 0.0386719 0.0483398 0.0483398 0.0225586 -0.0128906 -0.0580078 -0.093457 -0.0837891 -0.0515625 -0.00644531 0.0225586 0.0483398 0.0483398 0.0386719 -0.00322266 -0.0580078 -0.093457 -0.0837891 -0.0515625 -0.0128906 0.0225586 0.0612305 0.0483398 0.00966797 -0.00644531 -0.0515625 -0.0837891 -0.0805664 -0.0515625 -0.0128906 0.0225586 0.0612305 0.0547852 0.0386719 -0.0128906 -0.0515625 -0.093457 -0.0837891 -0.0644531 -0.0128906 0.0225586 0.0483398 0.0483398 0.0290039 -0.0128906 0 -0.093457 -0.0999023 -0.0483398 -0.00322266 0.0386719 0.0483398 0.0483398 0.0225586 -0.0128906 -0.0580078 -0.093457 -0.0837891 -0.0515625 -0.00644531 0.0225586 0.0483398 0.0483398 0.0386719 -0.00322266 -0.0580078 -0.093457 -0.0837891 -0.0515625 -0.0128906 0.0225586 0.0612305 0.0483398 0.00966797 -0.00644531 -0.0515625 -0.0837891 -0.0805664 -0.0515625 -0.0128906 0.0225586 0.0612305 0.0547852 0.0386719 -0.0128906 -0.0515625 -0.093457 -0.0837891 -0.0644531 -0.0128906 0.0225586 0.0483398 0.0483398 0.0290039 -0.0128906 -0.0580078 -0.093457 -0.0805664 -0.0515625 -0.00322266 0.0225586 0.0483398 0.0483398 0.0225586 -0.0225586 -0.0515625 -0.0999023 -0.093457 -0.0580078 0 0.0386719 0.0547852 0.0483398 0.0225586 -0.00644531 -0.0515625 -0.0741211 -0.0805664 -0.0515625 -0.00322266 0.0225586 0.0451172 0.0483398 0.0225586 -0.0128906 -0.0580078 -0.093457 -0.0805664 -0.0515625 -0.00322266 0.0290039 0.0483398 0.0386719 0.0225586 -0.0257812 -0.0644531 -0.0805664 -0.0805664 -0.0515625 -0.00322266 0.0290039 0.0612305 0.0547852 0.0225586 -0.0128906 0 -0.093457 -0.0805664 -0.0515625 -0.00322266 0.0225586 0.0483398 0.0483398 0.0225586 -0.0225586 -0.0515625 -0.0999023 -0.093457 -0.0580078 0 0.0386719 0.0547852 0.0483398 0.0225586 -0.00644531 -0.0515625 -0.0741211 -0.0805664 -0.0515625 -0.00322266 0.0225586 0.0451172 0.0483398 0.0225586 -0.0128906 -0.0580078 -0.093457 -0.0805664 -0.0515625 -0.00322266 0.0290039 0.0483398 0.0386719 0.0225586 -0.0257812 -0.0644531 -0.0805664 -0.0805664 -0.0515625 -0.00322266 0.0290039 0.0612305 0.0547852 0.0225586 -0.0128906 -0.0644531 -0.0999023 -0.0837891 -0.0580078 -0.00322266 0.0386719 0.0644531 0.0547852 0.0225586 -0.0128906 -0.0644531 -0.0999023 -0.093457 -0.0741211 -0.0128906 0.0225586 0.0483398 0.0483398 0.0225586 -0.0128906 -0.0644531 -0.0999023 -0.093457 -0.0515625 0 0.0225586 0.0483398 0.0483398 0.0451172 -0.00322266 -0.0580078 -0.093457 -0.0805664 -0.0644531 -0.0257812 0.0193359 0.0612305 0.0547852 0.0225586 -0.0225586 -0.0644531 -0.0999023 -0.0837891 -0.0580078 -0.00322266 0.0386719 0.0612305 0.0483398 0.0225586 -0.00322266 0 -0.0999023 -0.0837891 -0.0580078 -0.00322266 0.0386719 0.0644531 0.0547852 0.0225586 -0.0128906 -0.0644531 -0.0999023 -0.093457 -0.0741211 -0.0128906 0.0225586 0.0483398 0.0483398 0.0225586 -0.0128906 -0.0644531 -0.0999023 -0.093457 -0.0515625 0 0.0225586 0.0483398 0.0483398 0.0451172 -0.00322266 -0.0580078 -0.093457 -0.0805664 -0.0644531 -0.0257812 0.0193359 0.0612305 0.0547852 0.0225586 -0.0225586 -0.0644531 -0.0999023 -0.0837891 -0.0580078 -0.00322266 0.0386719 0.0612305 0.0483398 0.0225586 -0.00322266 -0.0515625 -0.093457 -0.0805664 -0.0515625 0 0.0225586 0.0612305 0.0612305 0.0451172 -0.0128906 -0.0644531 -0.103125 -0.093457 -0.0644531 -0.00644531 0.0451172 0.0773437 0.0483398 0.0386719 -0.0128906 -0.0644531 -0.116016 -0.093457 -0.0644531 -0.00322266 0.0193359 0.0612305 0.0612305 0.0225586 -0.0128906 -0.0580078 -0.0805664 -0.0805664 -0.0741211 -0.0128906 0.0225586 0.0483398 0.0547852 0.0225586 -0.0418945 -0.0580078 -0.0837891 -0.0580078 -0.0418945 0 0.0225586 0.0386719 0.0483398 0.0386719 -0.0128906 0 -0.093457 -0.0805664 -0.0515625 0 0.0225586 0.0612305 0.0612305 0.0451172 -0.0128906 -0.0644531 -0.103125 -0.093457 -0.0644531 -0.00644531 0.0451172 0.0773437 0.0483398 0.0386719 -0.0128906 -0.0644531 -0.116016 -0.093457 -0.0644531 -0.00322266 0.0193359 0.0612305 0.0612305 0.0225586 -0.0128906 -0.0580078 -0.0805664 -0.0805664 -0.0741211 -0.0128906 0.0225586 0.0483398 0.0547852 0.0225586 -0.0418945 -0.0580078 -0.0837891 -0.0580078 -0.0418945 0 0.0225586 0.0386719 0.0483398 0.0386719 -0.0128906 -0.0644531 -0.0805664 -0.0805664 -0.0418945 0 0.0386719 0.0708984 0.0612305 0.0225586 -0.0225586 -0.0644531 -0.0837891 -0.0805664 -0.0580078 -0.0128906 0.0225586 0.0547852 0.0547852 0.0225586 -0.0257812 -0.0580078 -0.0999023 -0.093457 -0.0515625 0.00322266 0.0773437 0.0483398 0.0773437 0.0386719 -0.0257812 -0.0805664 -0.103125 -0.093457 -0.0515625 0.00966797 0.0483398 0.0902344 0.0773437 0.0225586 -0.0483398 -0.093457 -0.128906 -0.093457 -0.0418945 0.00966797 0.0773437 0.0805664 0.0483398 0.00966797 -0.0257812 0 -0.0805664 -0.0805664 -0.0418945 0 0.0386719 0.0708984 0.0612305 0.0225586 -0.0225586 -0.0644531 -0.0837891 -0.0805664 -0.0580078 -0.0128906 0.0225586 0.0547852 0.0547852 0.0225586 -0.0257812 -0.0580078 -0.0999023 -0.093457 -0.0515625 0.00322266 0.0773437 0.0483398 0.0773437 0.0386719 -0.0257812 -0.0805664 -0.103125 -0.093457 -0.0515625 0.00966797 0.0483398 0.0902344 0.0773437 0.0225586 -0.0483398 -0.093457 -0.128906 -0.093457 -0.0418945 0.00966797 0.0773437 0.0805664 0.0483398 0.00966797 -0.0257812 -0.0837891 -0.128906 -0.093457 -0.0580078 0.00966797 0.0483398 0.0902344 0.0612305 0.0225586 -0.0257812 -0.0837891 -0.10957 -0.103125 -0.0515625 0 0.0547852 0.0773437 0.0644531 0.0290039 -0.0257812 -0.0805664 -0.116016 -0.103125 -0.0644531 -0.00644531 0.0483398 0.0805664 0.0773437 0.0386719 -0.0257812 -0.0805664 -0.125684 -0.103125 -0.0644531 -0.00644531 0.0483398 0.0773437 0.0547852 0.0290039 -0.0257812 -0.0644531 -0.116016 -0.103125 -0.0580078 -0.00644531 0.0225586 0.0547852 0.0483398 0.0386719 -0.00322266 0 -0.128906 -0.093457 -0.0580078 0.00966797 0.0483398 0.0902344 0.0612305 0.0225586 -0.0257812 -0.0837891 -0.10957 -0.103125 -0.0515625 0 0.0547852 0.0773437 0.0644531 0.0290039 -0.0257812 -0.0805664 -0.116016 -0.103125 -0.0644531 -0.00644531 0.0483398 0.0805664 0.0773437 0.0386719 -0.0257812 -0.0805664 -0.125684 -0.103125 -0.0644531 -0.00644531 0.0483398 0.0773437 0.0547852 0.0290039 -0.0257812 -0.0644531 -0.116016 -0.103125 -0.0580078 -0.00644531 0.0225586 0.0547852 0.0483398 0.0386719 -0.00322266 -0.0644531 -0.0999023 -0.0805664 -0.0418945 0 0.0483398 0.0773437 0.0547852 0.0290039 -0.0257812 -0.0741211 -0.103125 -0.103125 -0.0580078 0 0.0483398 0.0902344 0.0773437 0.0386719 -0.0225586 -0.0805664 -0.116016 -0.093457 -0.0515625 0 0.0451172 0.0612305 0.0483398 0.0225586 -0.00644531 -0.0644531 -0.103125 -0.093457 -0.0515625 -0.00322266 0.0483398 0.0483398 0.0483398 0.0225586 -0.0225586 -0.0837891 -0.10957 -0.0805664 -0.0515625 -0.00322266 0.0386719 0.0612305 0.0547852 0.0290039 -0.0257812 0 -0.0999023 -0.0805664 -0.0418945 0 0.0483398 0.0773437 0.0547852 0.0290039 -0.0257812 -0.0741211 -0.103125 -0.103125 -0.0580078 0 0.0483398 0.0902344 0.0773437 0.0386719 -0.0225586 -0.0805664 -0.116016 -0.093457 -0.0515625 0 0.0451172 0.0612305 0.0483398 0.0225586 -0.00644531 -0.0644531 -0.103125 -0.093457 -0.0515625 -0.00322266 0.0483398 0.0483398 0.0483398 0.0225586 -0.0225586 -0.0837891 -0.10957 -0.0805664 -0.0515625 -0.00322266 0.0386719 0.0612305 0.0547852 0.0290039 -0.0257812 -0.0644531 -0.093457 -0.0805664 -0.0515625 -0.00322266 0.0483398 0.0612305 0.0386719 0.0225586 -0.0225586 -0.0580078 -0.093457 -0.0805664 -0.0644531 -0.00644531 0.0386719 0.0612305 0.0483398 0.0386719 -0.0128906 -0.0547852 -0.093457 -0.0805664 -0.0515625 -0.00322266 0.0451172 0.0483398 0.0483398 0.0290039 -0.0128906 -0.0515625 -0.0805664 -0.093457 -0.0580078 -0.00322266 0.0483398 0.0644531 0.0708984 0.0451172 -0.0257812 -0.0644531 -0.093457 -0.0805664 -0.0644531 0 0.0386719 0.0612305 0.0708984 0.0225586 -0.0128906 0 -0.093457 -0.0805664 -0.0515625 -0.00322266 0.0483398 0.0612305 0.0386719 0.0225586 -0.0225586 -0.0580078 -0.093457 -0.0805664 -0.0644531 -0.00644531 0.0386719 0.0612305 0.0483398 0.0386719 -0.0128906 -0.0547852 -0.093457 -0.0805664 -0.0515625 -0.00322266 0.0451172 0.0483398 0.0483398 0.0290039 -0.0128906 -0.0515625 -0.0805664 -0.093457 -0.0580078 -0.00322266 0.0483398 0.0644531 0.0708984 0.0451172 -0.0257812 -0.0644531 -0.093457 -0.0805664 -0.0644531 0 0.0386719 0.0612305 0.0708984 0.0225586 -0.0128906 -0.0805664 -0.0999023 -0.0805664 -0.0515625 0 0.0451172 0.0612305 0.0612305 0.0225586 -0.0257812 -0.0805664 -0.103125 -0.093457 -0.0515625 -0.00322266 0.0612305 0.0773437 0.0773437 0.0386719 -0.0257812 -0.0805664 -0.10957 -0.0999023 -0.0644531 0 0.0483398 0.0902344 0.0612305 0.0225586 -0.0257812 -0.0805664 -0.116016 -0.103125 -0.0644531 -0.00644531 0.0386719 0.0773437 0.0612305 0.0386719 -0.0257812 -0.0805664 -0.10957 -0.0999023 -0.0515625 0 0.0483398 0.0773437 0.0612305 0.0225586 -0.0257812 0 -0.0999023 -0.0805664 -0.0515625 0 0.0451172 0.0612305 0.0612305 0.0225586 -0.0257812 -0.0805664 -0.103125 -0.093457 -0.0515625 -0.00322266 0.0612305 0.0773437 0.0773437 0.0386719 -0.0257812 -0.0805664 -0.10957 -0.0999023 -0.0644531 0 0.0483398 0.0902344 0.0612305 0.0225586 -0.0257812 -0.0805664 -0.116016 -0.103125 -0.0644531 -0.00644531 0.0386719 0.0773437 0.0612305 0.0386719 -0.0257812 -0.0805664 -0.10957 -0.0999023 -0.0515625 0 0.0483398 0.0773437 0.0612305 0.0225586 -0.0257812 -0.0805664 -0.103125 -0.093457 -0.0644531 -0.00322266 0.0483398 0.0805664 0.0612305 0.0225586 -0.0257812 -0.0837891 -0.116016 -0.0999023 -0.0580078 0 0.0483398 0.0805664 0.0612305 0.0225586 -0.0257812 -0.0805664 -0.10957 -0.103125 -0.0644531 -0.00322266 0.0451172 0.0773437 0.0483398 0.0193359 -0.0257812 -0.093457 -0.128906 -0.103125 -0.0644531 0 0.0386719 0.0773437 0.0612305 0.0451172 0 -0.0644531 -0.116016 -0.10957 -0.0515625 0.0386719 0.0225586 0.112793 0.0902344 0.0386719 0.0612305 0 -0.103125 -0.093457 -0.0644531 -0.00322266 0.0483398 0.0805664 0.0612305 0.0225586 -0.0257812 -0.0837891 -0.116016 -0.0999023 -0.0580078 0 0.0483398 0.0805664 0.0612305 0.0225586 -0.0257812 -0.0805664 -0.10957 -0.103125 -0.0644531 -0.00322266 0.0451172 0.0773437 0.0483398 0.0193359 -0.0257812 -0.093457 -0.128906 -0.103125 -0.0644531 0 0.0386719 0.0773437 0.0612305 0.0451172 0 -0.0644531 -0.116016 -0.10957 -0.0515625 0.0386719 0.0225586 0.112793 0.0902344 0.0386719 0.0612305 -0.186914 -0.31582 -0.103125 -0.093457 0.0225586 0.154687 0.174023 0.406055 0.26748 -0.0322266 -0.00322266 -0.0225586 -0.389941 -0.15791 -0.805664 -0.35127 0.164355 0.502734 0.61875 0.525293 0.576855 0.399609 0.193359 -0.908789 -0.754102 -0.98291 -1.12471 -0.725098 0.502734 1.05381 0.924902 1.21494 1.01836 0.783105 0.261035 0.180469 -0.248145 -0.331934 -0.541406 -0.46084 -0.373828 -0.367383 -0.335156 -0.20625 -0.0483398 0.112793 0.319043 0.286816 -0.103125 -0.151465 0 -0.31582 -0.103125 -0.093457 0.0225586 0.154687 0.174023 0.406055 0.26748 -0.0322266 -0.00322266 -0.0225586 -0.389941 -0.15791 -0.805664 -0.35127 0.164355 0.502734 0.61875 0.525293 0.576855 0.399609 0.193359 -0.908789 -0.754102 -0.98291 -1.12471 -0.725098 0.502734 1.05381 0.924902 1.21494 1.01836 0.783105 0.261035 0.180469 -0.248145 -0.331934 -0.541406 -0.46084 -0.373828 -0.367383 -0.335156 -0.20625 -0.0483398 0.112793 0.319043 0.286816 -0.103125 -0.151465 -0.20625 -0.335156 -0.425391 -0.734766 -0.306152 -0.493066 -0.103125 0.36416 0.525293 0.66709 0.641309 0.483398 0.0902344 -0.286816 -0.312598 -0.20625 -0.103125 0.125684 0.203027 -0.128906 -0.151465 -0.103125 -0.161133 -0.183691 -0.0257812 0.0612305 0.164355 0.164355 0.125684 0.00966797 -0.103125 -0.135352 -0.103125 -0.0999023 -0.0418945 0.0483398 0.0966797 0.0902344 -0.00322266 -0.093457 -0.141797 -0.128906 -0.14502 -0.14502 -0.093457 0.0225586 0.0483398 0.0225586 -0.0257812 -0.103125 0 -0.335156 -0.425391 -0.734766 -0.306152 -0.493066 -0.103125 0.36416 0.525293 0.66709 0.641309 0.483398 0.0902344 -0.286816 -0.312598 -0.20625 -0.103125 0.125684 0.203027 -0.128906 -0.151465 -0.103125 -0.161133 -0.183691 -0.0257812 0.0612305 0.164355 0.164355 0.125684 0.00966797 -0.103125 -0.135352 -0.103125 -0.0999023 -0.0418945 0.0483398 0.0966797 0.0902344 -0.00322266 -0.093457 -0.141797 -0.128906 -0.14502 -0.14502 -0.093457 0.0225586 0.0483398 0.0225586 -0.0257812 -0.103125 -0.14502 -0.167578 -0.128906 -0.0999023 -0.0418945 -0.0128906 -0.00322266 -0.0257812 -0.0225586 -0.0805664 -0.093457 -0.103125 -0.093457 -0.0644531 -0.0128906 -0.0257812 0 0.0193359 0.0225586 0.00966797 -0.0322266 -0.0322266 -0.0515625 -0.0225586 0.0290039 0.0612305 0.0773437 0.0612305 0.0225586 -0.00644531 -0.0418945 -0.0580078 -0.0580078 -0.0128906 0.0386719 0.0451172 0.0290039 0.0225586 0.00966797 -0.0257812 -0.0580078 -0.0837891 -0.0644531 -0.0257812 -0.00322266 0.00966797 0.0483398 0.0225586 -0.00644531 -0.0257812 0 -0.167578 -0.128906 -0.0999023 -0.0418945 -0.0128906 -0.00322266 -0.0257812 -0.0225586 -0.0805664 -0.093457 -0.103125 -0.093457 -0.0644531 -0.0128906 -0.0257812 0 0.0193359 0.0225586 0.00966797 -0.0322266 -0.0322266 -0.0515625 -0.0225586 0.0290039 0.0612305 0.0773437 0.0612305 0.0225586 -0.00644531 -0.0418945 -0.0580078 -0.0580078 -0.0128906 0.0386719 0.0451172 0.0290039 0.0225586 0.00966797 -0.0257812 -0.0580078 -0.0837891 -0.0644531 -0.0257812 -0.00322266 0.00966797 0.0483398 0.0225586 -0.00644531 -0.0257812 -0.0515625 -0.0644531 -0.0805664 -0.0580078 -0.0257812 0 0.0193359 0.00966797 0 -0.0418945 -0.0515625 -0.0741211 -0.0515625 -0.0515625 -0.0257812 0 0.00966797 0.0225586 0 -0.0418945 -0.0580078 -0.0741211 -0.0515625 -0.0257812 0.0225586 0.0612305 0.0805664 0.0612305 0.0483398 0.00966797 -0.0257812 -0.0515625 -0.0483398 -0.0128906 0.0386719 0.0773437 0.0902344 0.0902344 0.0547852 0.0193359 -0.0515625 -0.093457 -0.0805664 -0.0644531 -0.00644531 0.0483398 0.0612305 0.0483398 0.00322266 -0.0515625 0 -0.0644531 -0.0805664 -0.0580078 -0.0257812 0 0.0193359 0.00966797 0 -0.0418945 -0.0515625 -0.0741211 -0.0515625 -0.0515625 -0.0257812 0 0.00966797 0.0225586 0 -0.0418945 -0.0580078 -0.0741211 -0.0515625 -0.0257812 0.0225586 0.0612305 0.0805664 0.0612305 0.0483398 0.00966797 -0.0257812 -0.0515625 -0.0483398 -0.0128906 0.0386719 0.0773437 0.0902344 0.0902344 0.0547852 0.0193359 -0.0515625 -0.093457 -0.0805664 -0.0644531 -0.00644531 0.0483398 0.0612305 0.0483398 0.00322266 -0.0515625 -0.103125 -0.135352 -0.103125 -0.0805664 -0.0257812 0.0386719 0.0773437 0.0483398 0 -0.0580078 -0.10957 -0.14502 -0.128906 -0.0837891 -0.0128906 0.0451172 0.0773437 0.0483398 0.0193359 -0.0483398 -0.10957 -0.14502 -0.128906 -0.0805664 -0.0257812 0.0386719 0.0612305 0.0483398 0.00966797 -0.0580078 -0.116016 -0.14502 -0.103125 -0.0644531 -0.00322266 0.0612305 0.0773437 0.0451172 0.00966797 -0.0515625 -0.0837891 -0.128906 -0.103125 -0.0580078 0 0.0386719 0.0483398 0.0386719 0.0193359 -0.0257812 0 -0.135352 -0.103125 -0.0805664 -0.0257812 0.0386719 0.0773437 0.0483398 0 -0.0580078 -0.10957 -0.14502 -0.128906 -0.0837891 -0.0128906 0.0451172 0.0773437 0.0483398 0.0193359 -0.0483398 -0.10957 -0.14502 -0.128906 -0.0805664 -0.0257812 0.0386719 0.0612305 0.0483398 0.00966797 -0.0580078 -0.116016 -0.14502 -0.103125 -0.0644531 -0.00322266 0.0612305 0.0773437 0.0451172 0.00966797 -0.0515625 -0.0837891 -0.128906 -0.103125 -0.0580078 0 0.0386719 0.0483398 0.0386719 0.0193359 -0.0257812 -0.0805664 -0.10957 -0.116016 -0.0644531 -0.0225586 0.0225586 0.0386719 0.0386719 0.0451172 0.00966797 -0.0515625 -0.0805664 -0.0580078 -0.0386719 0.0193359 0.0483398 0.0773437 0.0451172 0.0386719 -0.0128906 -0.0483398 -0.0644531 -0.0418945 -0.0128906 0.0999023 0.203027 0.180469 0.0902344 0.0386719 -0.0257812 -0.0128906 -0.0257812 0.0193359 -0.0483398 -0.0805664 -0.0483398 -0.0257812 0.0773437 -0.257812 -0.0257812 -0.676758 -0.335156 -0.373828 -0.0741211 0.0999023 0.0999023 0.283594 0.331934 0.183691 0.309375 0 -0.10957 -0.116016 -0.0644531 -0.0225586 0.0225586 0.0386719 0.0386719 0.0451172 0.00966797 -0.0515625 -0.0805664 -0.0580078 -0.0386719 0.0193359 0.0483398 0.0773437 0.0451172 0.0386719 -0.0128906 -0.0483398 -0.0644531 -0.0418945 -0.0128906 0.0999023 0.203027 0.180469 0.0902344 0.0386719 -0.0257812 -0.0128906 -0.0257812 0.0193359 -0.0483398 -0.0805664 -0.0483398 -0.0257812 0.0773437 -0.257812 -0.0257812 -0.676758 -0.335156 -0.373828 -0.0741211 0.0999023 0.0999023 0.283594 0.331934 0.183691 0.309375 -0.128906 -0.335156 -0.528516 -0.36416 -0.0418945 0.164355 0.502734 -0.541406 -0.402832 -0.0805664 0.183691 0.457617 0.731543 0.828223 0.773438 -0.0515625 -0.232031 -1.35352 -0.631641 -1.02803 -0.0644531 0.638086 0.309375 -0.167578 0.0902344 1.07959 1.00869 0.696094 -0.00644531 -0.46084 -0.286816 -0.435059 -0.0644531 -0.15791 -0.00322266 0.319043 0.409277 0.451172 0.525293 0.0483398 -0.20625 -0.541406 -0.167578 0.00966797 0.164355 0.277148 0.309375 0.141797 0.0999023 0.00322266 0 -0.335156 -0.528516 -0.36416 -0.0418945 0.164355 0.502734 -0.541406 -0.402832 -0.0805664 0.183691 0.457617 0.731543 0.828223 0.773438 -0.0515625 -0.232031 -1.35352 -0.631641 -1.02803 -0.0644531 0.638086 0.309375 -0.167578 0.0902344 1.07959 1.00869 0.696094 -0.00644531 -0.46084 -0.286816 -0.435059 -0.0644531 -0.15791 -0.00322266 0.319043 0.409277 0.451172 0.525293 0.0483398 -0.20625 -0.541406 -0.167578 0.00966797 0.164355 0.277148 0.309375 0.141797 0.0999023 0.00322266 0.0290039 -0.103125 -0.128906 -0.00322266 0.125684 0.141797 -0.0257812 -0.00644531 -0.0515625 -0.116016 -0.128906 -0.177246 -0.228809 -0.20625 -0.14502 -0.116016 -0.00322266 -0.0644531 -0.0805664 -0.0805664 -0.196582 -0.20625 -0.232031 -0.219141 -0.183691 -0.103125 -0.0257812 -0.0257812 -0.0322266 -0.128906 -0.203027 -0.219141 -0.219141 -0.167578 -0.116016 -0.0805664 -0.0418945 -0.0580078 -0.0644531 -0.15791 -0.135352 -0.14502 -0.14502 -0.116016 -0.093457 -0.0418945 -0.00644531 0.00322266 -0.00644531 -0.0805664 0 -0.103125 -0.128906 -0.00322266 0.125684 0.141797 -0.0257812 -0.00644531 -0.0515625 -0.116016 -0.128906 -0.177246 -0.228809 -0.20625 -0.14502 -0.116016 -0.00322266 -0.0644531 -0.0805664 -0.0805664 -0.196582 -0.20625 -0.232031 -0.219141 -0.183691 -0.103125 -0.0257812 -0.0257812 -0.0322266 -0.128906 -0.203027 -0.219141 -0.219141 -0.167578 -0.116016 -0.0805664 -0.0418945 -0.0580078 -0.0644531 -0.15791 -0.135352 -0.14502 -0.14502 -0.116016 -0.093457 -0.0418945 -0.00644531 0.00322266 -0.00644531 -0.0805664 -0.128906 -0.14502 -0.093457 0 0 0.0483398 0.0773437 0.0805664 0.00966797 -0.0418945 -0.093457 -0.116016 -0.093457 -0.093457 -0.128906 -0.103125 -0.0128906 -0.0128906 -0.0805664 -0.0805664 -0.0644531 -0.0257812 -0.0515625 -0.0418945 0.0225586 0.0386719 0.0451172 0.0386719 0.0193359 -0.0257812 -0.0418945 -0.0805664 -0.0805664 -0.0580078 -0.0128906 0.0193359 0.0386719 0.0386719 0.0386719 -0.00322266 -0.0580078 -0.0805664 -0.0515625 -0.0225586 0.00966797 0.0386719 0.0290039 0.0386719 -0.00322266 -0.0644531 0 -0.14502 -0.093457 0 0 0.0483398 0.0773437 0.0805664 0.00966797 -0.0418945 -0.093457 -0.116016 -0.093457 -0.093457 -0.128906 -0.103125 -0.0128906 -0.0128906 -0.0805664 -0.0805664 -0.0644531 -0.0257812 -0.0515625 -0.0418945 0.0225586 0.0386719 0.0451172 0.0386719 0.0193359 -0.0257812 -0.0418945 -0.0805664 -0.0805664 -0.0580078 -0.0128906 0.0193359 0.0386719 0.0386719 0.0386719 -0.00322266 -0.0580078 -0.0805664 -0.0515625 -0.0225586 0.00966797 0.0386719 0.0290039 0.0386719 -0.00322266 -0.0644531 -0.103125 -0.103125 -0.128906 -0.0999023 -0.0515625 0.00322266 -0.0225586 0.00966797 -0.00644531 -0.0580078 -0.0999023 -0.128906 -0.103125 -0.0483398 0.0451172 0.125684 0.164355 0.154687 0.112793 0.0547852 -0.00644531 -0.0322266 -0.0128906 0 0.0644531 0.122461 0.141797 0.125684 0.0966797 0.00966797 -0.0515625 -0.0805664 -0.0805664 -0.0418945 0.0386719 0.0902344 0.122461 0.0966797 0.0547852 -0.00322266 -0.0837891 -0.125684 -0.10957 -0.0644531 0.00966797 0.0451172 0.0966797 0.0773437 0.0483398 -0.00322266 0 -0.103125 -0.128906 -0.0999023 -0.0515625 0.00322266 -0.0225586 0.00966797 -0.00644531 -0.0580078 -0.0999023 -0.128906 -0.103125 -0.0483398 0.0451172 0.125684 0.164355 0.154687 0.112793 0.0547852 -0.00644531 -0.0322266 -0.0128906 0 0.0644531 0.122461 0.141797 0.125684 0.0966797 0.00966797 -0.0515625 -0.0805664 -0.0805664 -0.0418945 0.0386719 0.0902344 0.122461 0.0966797 0.0547852 -0.00322266 -0.0837891 -0.125684 -0.10957 -0.0644531 0.00966797 0.0451172 0.0966797 0.0773437 0.0483398 -0.00322266 -0.0580078 -0.103125 -0.0805664 -0.0257812 0.0225586 0.0966797 0.0999023 0.0805664 0.0451172 -0.0257812 -0.093457 -0.10957 -0.0837891 -0.0257812 0.0451172 0.0805664 0.0999023 0.0999023 0.0547852 0.00966797 -0.0515625 -0.093457 -0.0805664 -0.0257812 0.0225586 0.0773437 0.0999023 0.0773437 0.0451172 -0.00644531 -0.0580078 -0.093457 -0.0644531 -0.0257812 0.0193359 0.0225586 0.0547852 0.0386719 0.00966797 -0.0257812 -0.0644531 -0.093457 -0.0837891 -0.0805664 -0.0418945 -0.00644531 0.00966797 0 -0.0257812 -0.0644531 0 -0.103125 -0.0805664 -0.0257812 0.0225586 0.0966797 0.0999023 0.0805664 0.0451172 -0.0257812 -0.093457 -0.10957 -0.0837891 -0.0257812 0.0451172 0.0805664 0.0999023 0.0999023 0.0547852 0.00966797 -0.0515625 -0.093457 -0.0805664 -0.0257812 0.0225586 0.0773437 0.0999023 0.0773437 0.0451172 -0.00644531 -0.0580078 -0.093457 -0.0644531 -0.0257812 0.0193359 0.0225586 0.0547852 0.0386719 0.00966797 -0.0257812 -0.0644531 -0.093457 -0.0837891 -0.0805664 -0.0418945 -0.00644531 0.00966797 0 -0.0257812 -0.0644531 -0.093457 -0.10957 -0.0999023 -0.0805664 -0.0418945 -0.0128906 0.00322266 0.00966797 -0.00644531 -0.0418945 -0.0644531 -0.093457 -0.0644531 -0.0515625 -0.0225586 0.00966797 0.0225586 -0.0128906 -0.00644531 -0.0257812 -0.0483398 -0.0644531 -0.0644531 -0.0322266 0 0.0193359 0.0483398 0.0451172 -0.0322266 0.00322266 -0.0418945 -0.0805664 0.0612305 0.15791 0.203027 0.0966797 0.0386719 0.0483398 0.00966797 -0.312598 -0.312598 -0.232031 -0.476953 -0.702539 -0.151465 0.228809 0.148242 -0.219141 -0.0225586 0.592969 0 -0.10957 -0.0999023 -0.0805664 -0.0418945 -0.0128906 0.00322266 0.00966797 -0.00644531 -0.0418945 -0.0644531 -0.093457 -0.0644531 -0.0515625 -0.0225586 0.00966797 0.0225586 -0.0128906 -0.00644531 -0.0257812 -0.0483398 -0.0644531 -0.0644531 -0.0322266 0 0.0193359 0.0483398 0.0451172 -0.0322266 0.00322266 -0.0418945 -0.0805664 0.0612305 0.15791 0.203027 0.0966797 0.0386719 0.0483398 0.00966797 -0.312598 -0.312598 -0.232031 -0.476953 -0.702539 -0.151465 0.228809 0.148242 -0.219141 -0.0225586 0.592969 0.283594 -0.802441 -0.203027 -0.161133 0.67998 0.915234 0.915234 0.696094 0.164355 0.0225586 0.0483398 -0.541406 -0.76377 -0.541406 0.331934 0.576855 0.538184 0.502734 0.502734 0.309375 -0.093457 -0.219141 -0.257812 -0.15791 -0.35127 -0.15791 -0.625195 -0.621973 -0.0257812 -0.183691 -0.0644531 0.296484 0.409277 0.328711 0.203027 0.0999023 0.228809 0.180469 -0.493066 -0.335156 -0.0644531 -0.186914 -0.515625 -0.286816 0.0483398 0.0999023 0.409277 0.641309 0.799219 0.673535 0 -0.802441 -0.203027 -0.161133 0.67998 0.915234 0.915234 0.696094 0.164355 0.0225586 0.0483398 -0.541406 -0.76377 -0.541406 0.331934 0.576855 0.538184 0.502734 0.502734 0.309375 -0.093457 -0.219141 -0.257812 -0.15791 -0.35127 -0.15791 -0.625195 -0.621973 -0.0257812 -0.183691 -0.0644531 0.296484 0.409277 0.328711 0.203027 0.0999023 0.228809 0.180469 -0.493066 -0.335156 -0.0644531 -0.186914 -0.515625 -0.286816 0.0483398 0.0999023 0.409277 0.641309 0.799219 0.673535 0.46084 0.180469 -0.093457 -0.14502 -0.0418945 -0.0322266 -0.0225586 -0.0225586 -0.0837891 -0.135352 -0.20625 -0.196582 -0.128906 -0.196582 -0.196582 -0.093457 -0.128906 -0.203027 -0.335156 -0.4125 -0.4125 -0.393164 -0.335156 -0.261035 -0.135352 -0.0257812 0.00322266 -0.0999023 -0.103125 -0.183691 -0.232031 -0.257812 -0.183691 -0.128906 -0.00322266 0.0483398 0.0773437 0.0805664 0.0225586 -0.0515625 -0.116016 -0.167578 -0.14502 -0.0837891 0.0225586 0.0483398 0.0966797 0.0483398 0.0547852 0.0386719 0 0.180469 -0.093457 -0.14502 -0.0418945 -0.0322266 -0.0225586 -0.0225586 -0.0837891 -0.135352 -0.20625 -0.196582 -0.128906 -0.196582 -0.196582 -0.093457 -0.128906 -0.203027 -0.335156 -0.4125 -0.4125 -0.393164 -0.335156 -0.261035 -0.135352 -0.0257812 0.00322266 -0.0999023 -0.103125 -0.183691 -0.232031 -0.257812 -0.183691 -0.128906 -0.00322266 0.0483398 0.0773437 0.0805664 0.0225586 -0.0515625 -0.116016 -0.167578 -0.14502 -0.0837891 0.0225586 0.0483398 0.0966797 0.0483398 0.0547852 0.0386719 0 0.00966797 -0.0257812 0.00966797 0.0612305 0.0773437 0.0612305 0.0386719 0.0128906 -0.0257812 -0.0644531 -0.093457 -0.0805664 -0.0515625 0 0.0483398 0.0483398 0.0483398 0.0225586 -0.0257812 -0.0515625 -0.0741211 -0.0483398 -0.0257812 0.0225586 0.0290039 0.0483398 0.0612305 0.0225586 0 -0.0483398 -0.0644531 -0.0580078 -0.0257812 -0.0225586 -0.0257812 0.00966797 -0.0257812 -0.0257812 -0.0257812 -0.0644531 -0.103125 -0.093457 -0.0644531 -0.0128906 0.0193359 0.0225586 -0.0257812 -0.0257812 -0.0644531 0 0.00966797 -0.0257812 0.00966797 0.0612305 0.0773437 0.0612305 0.0386719 0.0128906 -0.0257812 -0.0644531 -0.093457 -0.0805664 -0.0515625 0 0.0483398 0.0483398 0.0483398 0.0225586 -0.0257812 -0.0515625 -0.0741211 -0.0483398 -0.0257812 0.0225586 0.0290039 0.0483398 0.0612305 0.0225586 0 -0.0483398 -0.0644531 -0.0580078 -0.0257812 -0.0225586 -0.0257812 0.00966797 -0.0257812 -0.0257812 -0.0257812 -0.0644531 -0.103125 -0.093457 -0.0644531 -0.0128906 0.0193359 0.0225586 -0.0257812 -0.0257812 -0.0644531 -0.103125 -0.103125 -0.093457 -0.0580078 -0.0128906 0.0386719 0.0483398 0.0225586 0.0225586 -0.00644531 -0.0386719 -0.0644531 -0.0515625 -0.0257812 0.0193359 0.0483398 0.0773437 0.0773437 0.0451172 0 -0.0418945 -0.0741211 -0.0515625 -0.0322266 0.00966797 0.0483398 0.0773437 0.0773437 0.0386719 -0.0257812 -0.0805664 -0.116016 -0.103125 -0.0805664 -0.0225586 0.00966797 0.0225586 0.00966797 0 -0.0515625 -0.103125 -0.15791 -0.116016 -0.0805664 0.00966797 0.0547852 0.0547852 0.0773437 0.0483398 -0.0257812 0 -0.103125 -0.093457 -0.0580078 -0.0128906 0.0386719 0.0483398 0.0225586 0.0225586 -0.00644531 -0.0386719 -0.0644531 -0.0515625 -0.0257812 0.0193359 0.0483398 0.0773437 0.0773437 0.0451172 0 -0.0418945 -0.0741211 -0.0515625 -0.0322266 0.00966797 0.0483398 0.0773437 0.0773437 0.0386719 -0.0257812 -0.0805664 -0.116016 -0.103125 -0.0805664 -0.0225586 0.00966797 0.0225586 0.00966797 0 -0.0515625 -0.103125 -0.15791 -0.116016 -0.0805664 0.00966797 0.0547852 0.0547852 0.0773437 0.0483398 -0.0257812 -0.0805664 -0.103125 -0.103125 -0.0805664 -0.00644531 0.0290039 0.0612305 0.0708984 0.0451172 -0.0128906 -0.0644531 -0.0805664 -0.0580078 -0.0257812 0.0483398 0.0999023 0.141797 0.112793 0.0902344 0.0386719 -0.00322266 -0.0257812 -0.0257812 0.00322266 0.0483398 0.0999023 0.141797 0.125684 0.0999023 0.0225586 0.00322266 -0.0257812 -0.0257812 0 0.0483398 0.0773437 0.0999023 0.0773437 0.0386719 -0.00644531 -0.0515625 -0.0837891 -0.0741211 -0.0515625 -0.0257812 0.00966797 0.0225586 -0.00644531 -0.0257812 -0.0644531 0 -0.103125 -0.103125 -0.0805664 -0.00644531 0.0290039 0.0612305 0.0708984 0.0451172 -0.0128906 -0.0644531 -0.0805664 -0.0580078 -0.0257812 0.0483398 0.0999023 0.141797 0.112793 0.0902344 0.0386719 -0.00322266 -0.0257812 -0.0257812 0.00322266 0.0483398 0.0999023 0.141797 0.125684 0.0999023 0.0225586 0.00322266 -0.0257812 -0.0257812 0 0.0483398 0.0773437 0.0999023 0.0773437 0.0386719 -0.00644531 -0.0515625 -0.0837891 -0.0741211 -0.0515625 -0.0257812 0.00966797 0.0225586 -0.00644531 -0.0257812 -0.0644531 -0.0999023 -0.128906 -0.116016 -0.093457 -0.0644531 -0.0257812 -0.00322266 -0.0225586 -0.0580078 -0.0128906 0.0225586 0.0225586 -0.0128906 -0.0580078 -0.093457 -0.103125 -0.0805664 -0.0257812 0.0902344 0.0483398 0.0483398 -0.00322266 -0.15791 -0.312598 -0.125684 0.141797 0.141797 -0.31582 -0.4125 -0.25459 -0.128906 0.00966797 0 -0.128906 -0.286816 -0.15791 -0.0805664 -0.00322266 0.0773437 0.467285 0.235254 0.228809 0.203027 0.319043 0.502734 0.141797 -0.493066 -1.16338 -0.505957 0.125684 0 -0.128906 -0.116016 -0.093457 -0.0644531 -0.0257812 -0.00322266 -0.0225586 -0.0580078 -0.0128906 0.0225586 0.0225586 -0.0128906 -0.0580078 -0.093457 -0.103125 -0.0805664 -0.0257812 0.0902344 0.0483398 0.0483398 -0.00322266 -0.15791 -0.312598 -0.125684 0.141797 0.141797 -0.31582 -0.4125 -0.25459 -0.128906 0.00966797 0 -0.128906 -0.286816 -0.15791 -0.0805664 -0.00322266 0.0773437 0.467285 0.235254 0.228809 0.203027 0.319043 0.502734 0.141797 -0.493066 -1.16338 -0.505957 0.125684 0.141797 0.183691 1.02803 0.825 -0.15791 -0.167578 0.88623 0.854004 0.567187 0.199805 0.112793 -0.257812 -0.0418945 0.309375 -0.4125 0.125684 0.0999023 0.215918 -0.0515625 -0.36416 -0.331934 -0.0805664 0.0773437 -0.0257812 0.25459 0.435059 0.386719 0.0225586 0.203027 0.386719 0.348047 0.0644531 -0.103125 -0.264258 -0.248145 -0.0741211 0.244922 0.46084 0.409277 0.283594 0.0612305 -0.093457 -0.196582 -0.286816 -0.128906 -0.128906 -0.093457 -0.15791 -0.093457 -0.128906 0 0.183691 1.02803 0.825 -0.15791 -0.167578 0.88623 0.854004 0.567187 0.199805 0.112793 -0.257812 -0.0418945 0.309375 -0.4125 0.125684 0.0999023 0.215918 -0.0515625 -0.36416 -0.331934 -0.0805664 0.0773437 -0.0257812 0.25459 0.435059 0.386719 0.0225586 0.203027 0.386719 0.348047 0.0644531 -0.103125 -0.264258 -0.248145 -0.0741211 0.244922 0.46084 0.409277 0.283594 0.0612305 -0.093457 -0.196582 -0.286816 -0.128906 -0.128906 -0.093457 -0.15791 -0.093457 -0.128906 -0.167578 -0.232031 -0.232031 -0.151465 -0.0805664 0.0483398 0.0902344 0.0483398 -0.0515625 -0.103125 -0.20625 -0.290039 -0.219141 -0.15791 -0.093457 -0.0418945 0.0225586 0.00322266 -0.0515625 -0.20625 -0.196582 -0.196582 -0.183691 -0.116016 -0.0418945 0.00322266 0 -0.0225586 -0.0580078 -0.103125 -0.128906 -0.14502 -0.0999023 -0.103125 -0.0515625 -0.0418945 -0.0515625 -0.0999023 -0.128906 -0.161133 -0.128906 -0.128906 -0.103125 -0.0644531 0.00966797 0.0225586 0.00966797 -0.0128906 -0.0257812 -0.0515625 0 -0.232031 -0.232031 -0.151465 -0.0805664 0.0483398 0.0902344 0.0483398 -0.0515625 -0.103125 -0.20625 -0.290039 -0.219141 -0.15791 -0.093457 -0.0418945 0.0225586 0.00322266 -0.0515625 -0.20625 -0.196582 -0.196582 -0.183691 -0.116016 -0.0418945 0.00322266 0 -0.0225586 -0.0580078 -0.103125 -0.128906 -0.14502 -0.0999023 -0.103125 -0.0515625 -0.0418945 -0.0515625 -0.0999023 -0.128906 -0.161133 -0.128906 -0.128906 -0.103125 -0.0644531 0.00966797 0.0225586 0.00966797 -0.0128906 -0.0257812 -0.0515625 -0.093457 -0.128906 -0.093457 -0.093457 -0.0418945 0 0.0193359 -0.00322266 -0.0257812 -0.0257812 -0.0418945 -0.0644531 -0.0515625 -0.0128906 -0.0225586 0.0225586 0.0483398 0.0225586 0.0225586 -0.0128906 -0.0515625 -0.093457 -0.0805664 -0.0515625 -0.0257812 -0.00322266 0.0225586 0.0225586 0.00322266 -0.0257812 -0.0515625 -0.0902344 -0.0805664 -0.0483398 0 0.0290039 0.0483398 0.0612305 0.0225586 -0.00322266 -0.0257812 -0.0644531 -0.0483398 -0.0257812 0.0225586 0.0773437 0.0773437 0.0902344 0.0612305 0.0225586 0 -0.128906 -0.093457 -0.093457 -0.0418945 0 0.0193359 -0.00322266 -0.0257812 -0.0257812 -0.0418945 -0.0644531 -0.0515625 -0.0128906 -0.0225586 0.0225586 0.0483398 0.0225586 0.0225586 -0.0128906 -0.0515625 -0.093457 -0.0805664 -0.0515625 -0.0257812 -0.00322266 0.0225586 0.0225586 0.00322266 -0.0257812 -0.0515625 -0.0902344 -0.0805664 -0.0483398 0 0.0290039 0.0483398 0.0612305 0.0225586 -0.00322266 -0.0257812 -0.0644531 -0.0483398 -0.0257812 0.0225586 0.0773437 0.0773437 0.0902344 0.0612305 0.0225586 -0.0257812 -0.0580078 -0.0644531 -0.0257812 0.0225586 0.0612305 0.0773437 0.0612305 0.0386719 -0.0225586 -0.0741211 -0.116016 -0.103125 -0.0515625 -0.00644531 0.0483398 0.0773437 0.0612305 0.0225586 -0.0257812 -0.0805664 -0.116016 -0.103125 -0.0644531 -0.00322266 0.0483398 0.0773437 0.0902344 0.0483398 -0.0128906 -0.0805664 -0.116016 -0.116016 -0.0999023 -0.0128906 0.0354492 0.0483398 0.0612305 0.0225586 -0.0128906 -0.0805664 -0.103125 -0.093457 -0.0644531 -0.0128906 0.0386719 0.0612305 0.0483398 0.0225586 -0.0418945 0 -0.0580078 -0.0644531 -0.0257812 0.0225586 0.0612305 0.0773437 0.0612305 0.0386719 -0.0225586 -0.0741211 -0.116016 -0.103125 -0.0515625 -0.00644531 0.0483398 0.0773437 0.0612305 0.0225586 -0.0257812 -0.0805664 -0.116016 -0.103125 -0.0644531 -0.00322266 0.0483398 0.0773437 0.0902344 0.0483398 -0.0128906 -0.0805664 -0.116016 -0.116016 -0.0999023 -0.0128906 0.0354492 0.0483398 0.0612305 0.0225586 -0.0128906 -0.0805664 -0.103125 -0.093457 -0.0644531 -0.0128906 0.0386719 0.0612305 0.0483398 0.0225586 -0.0418945 -0.0805664 -0.116016 -0.103125 -0.0515625 0 0.0386719 0.0612305 0.0483398 0.00966797 -0.0257812 -0.0741211 -0.0837891 -0.0805664 -0.0644531 -0.0257812 0.00966797 0.0386719 0.0225586 0 -0.0257812 -0.0515625 -0.0805664 -0.0837891 -0.0580078 -0.0483398 -0.0128906 0.0193359 0.00966797 0 -0.0418945 -0.0644531 -0.0805664 -0.0644531 -0.0322266 -0.00644531 -0.00322266 0.00966797 0.0193359 0.00966797 -0.0128906 -0.0322266 -0.0580078 -0.0547852 -0.0418945 -0.00322266 0.0225586 0.0483398 0.0225586 0.0225586 0 0 -0.116016 -0.103125 -0.0515625 0 0.0386719 0.0612305 0.0483398 0.00966797 -0.0257812 -0.0741211 -0.0837891 -0.0805664 -0.0644531 -0.0257812 0.00966797 0.0386719 0.0225586 0 -0.0257812 -0.0515625 -0.0805664 -0.0837891 -0.0580078 -0.0483398 -0.0128906 0.0193359 0.00966797 0 -0.0418945 -0.0644531 -0.0805664 -0.0644531 -0.0322266 -0.00644531 -0.00322266 0.00966797 0.0193359 0.00966797 -0.0128906 -0.0322266 -0.0580078 -0.0547852 -0.0418945 -0.00322266 0.0225586 0.0483398 0.0225586 0.0225586 0 -0.0418945 -0.0741211 -0.0644531 -0.0483398 0 0.0225586 0.0483398 0.0386719 0.0999023 0.0902344 0.00966797 -0.0644531 -0.103125 -0.093457 -0.0418945 0.0612305 0.0225586 0.0902344 0.0773437 0.141797 -0.00322266 -0.0644531 -0.0515625 0.0451172 0.15791 0.0193359 -0.57041 -0.828223 -0.335156 -0.454395 0.0386719 0.0547852 -0.093457 0.228809 -0.103125 0.125684 0.580078 0.567187 0.657422 0.973242 0.825 0.0805664 -0.802441 -0.802441 -0.451172 -0.0418945 -0.0580078 0.567187 0.457617 0 0 -0.0741211 -0.0644531 -0.0483398 0 0.0225586 0.0483398 0.0386719 0.0999023 0.0902344 0.00966797 -0.0644531 -0.103125 -0.093457 -0.0418945 0.0612305 0.0225586 0.0902344 0.0773437 0.141797 -0.00322266 -0.0644531 -0.0515625 0.0451172 0.15791 0.0193359 -0.57041 -0.828223 -0.335156 -0.454395 0.0386719 0.0547852 -0.093457 0.228809 -0.103125 0.125684 0.580078 0.567187 0.657422 0.973242 0.825 0.0805664 -0.802441 -0.802441 -0.451172 -0.0418945 -0.0580078 0.567187 0.457617 0 -0.402832 -0.918457 -0.219141 -0.0418945 0.112793 0.567187 0.399609 0.26748 -0.183691 -0.335156 -0.286816 0.360937 0.228809 0.592969 0.283594 -0.0580078 0.0999023 -0.493066 -0.476953 0.0966797 0.0225586 -0.0805664 0.0902344 0.154687 -0.286816 -0.0257812 0.193359 0.319043 0.25459 0.331934 0.112793 -0.0128906 -0.0580078 -0.0257812 -0.125684 -0.093457 0.112793 0.141797 0.0612305 -0.0128906 -0.10957 -0.167578 -0.128906 -0.196582 -0.14502 -0.20625 -0.232031 -0.196582 -0.183691 -0.196582 0 -0.918457 -0.219141 -0.0418945 0.112793 0.567187 0.399609 0.26748 -0.183691 -0.335156 -0.286816 0.360937 0.228809 0.592969 0.283594 -0.0580078 0.0999023 -0.493066 -0.476953 0.0966797 0.0225586 -0.0805664 0.0902344 0.154687 -0.286816 -0.0257812 0.193359 0.319043 0.25459 0.331934 0.112793 -0.0128906 -0.0580078 -0.0257812 -0.125684 -0.093457 0.112793 0.141797 0.0612305 -0.0128906 -0.10957 -0.167578 -0.128906 -0.196582 -0.14502 -0.20625 -0.232031 -0.196582 -0.183691 -0.196582 -0.203027 -0.219141 -0.14502 -0.0805664 -0.0483398 -0.0483398 -0.0805664 -0.10957 -0.128906 -0.219141 -0.248145 -0.219141 -0.219141 -0.232031 -0.183691 -0.0805664 -0.0837891 -0.15791 -0.0999023 -0.116016 -0.128906 -0.203027 -0.183691 -0.125684 -0.0515625 -0.0257812 0.0451172 0.0999023 0.00966797 -0.00322266 0 -0.0128906 -0.0257812 -0.0580078 -0.0515625 0 0.0386719 0.0483398 0.00966797 -0.0128906 -0.0805664 -0.10957 -0.0999023 -0.0418945 -0.0257812 -0.0418945 -0.0483398 -0.0580078 -0.0515625 -0.0515625 0 -0.219141 -0.14502 -0.0805664 -0.0483398 -0.0483398 -0.0805664 -0.10957 -0.128906 -0.219141 -0.248145 -0.219141 -0.219141 -0.232031 -0.183691 -0.0805664 -0.0837891 -0.15791 -0.0999023 -0.116016 -0.128906 -0.203027 -0.183691 -0.125684 -0.0515625 -0.0257812 0.0451172 0.0999023 0.00966797 -0.00322266 0 -0.0128906 -0.0257812 -0.0580078 -0.0515625 0 0.0386719 0.0483398 0.00966797 -0.0128906 -0.0805664 -0.10957 -0.0999023 -0.0418945 -0.0257812 -0.0418945 -0.0483398 -0.0580078 -0.0515625 -0.0515625 -0.0805664 -0.0644531 -0.0644531 -0.0515625 -0.0128906 -0.0225586 -0.0128906 -0.0128906 0.00966797 -0.0483398 -0.0805664 -0.128906 -0.128906 -0.103125 -0.0805664 -0.0515625 -0.0257812 -0.0257812 -0.00644531 -0.0257812 -0.0515625 -0.0644531 -0.0257812 -0.00322266 0.0225586 0.0451172 0.0483398 0 0.00966797 -0.00644531 -0.0418945 -0.0805664 -0.0257812 0.0225586 0.0386719 0.125684 0.164355 0.180469 0.180469 0.148242 0.141797 0.0999023 0.0966797 0.112793 0.154687 0.167578 0.180469 0.183691 0.15791 0.0999023 0 -0.0644531 -0.0644531 -0.0515625 -0.0128906 -0.0225586 -0.0128906 -0.0128906 0.00966797 -0.0483398 -0.0805664 -0.128906 -0.128906 -0.103125 -0.0805664 -0.0515625 -0.0257812 -0.0257812 -0.00644531 -0.0257812 -0.0515625 -0.0644531 -0.0257812 -0.00322266 0.0225586 0.0451172 0.0483398 0 0.00966797 -0.00644531 -0.0418945 -0.0805664 -0.0257812 0.0225586 0.0386719 0.125684 0.164355 0.180469 0.180469 0.148242 0.141797 0.0999023 0.0966797 0.112793 0.154687 0.167578 0.180469 0.183691 0.15791 0.0999023 0.0483398 -0.00322266 0.00322266 0.0225586 0.0805664 0.122461 0.125684 0.0999023 0.0902344 0.0225586 -0.0257812 -0.0805664 -0.0805664 -0.0418945 0.00966797 0.0483398 0.0708984 0.0483398 0.0225586 -0.0257812 -0.093457 -0.128906 -0.116016 -0.0805664 -0.0128906 0.0225586 0.0612305 0.0451172 0.00966797 -0.0483398 -0.093457 -0.128906 -0.128906 -0.093457 -0.0257812 0.0386719 0.0483398 0.0386719 0.00966797 -0.0515625 -0.0999023 -0.128906 -0.10957 -0.0805664 -0.0225586 0.0225586 0.0483398 0.0451172 0.0225586 -0.0418945 0 -0.00322266 0.00322266 0.0225586 0.0805664 0.122461 0.125684 0.0999023 0.0902344 0.0225586 -0.0257812 -0.0805664 -0.0805664 -0.0418945 0.00966797 0.0483398 0.0708984 0.0483398 0.0225586 -0.0257812 -0.093457 -0.128906 -0.116016 -0.0805664 -0.0128906 0.0225586 0.0612305 0.0451172 0.00966797 -0.0483398 -0.093457 -0.128906 -0.128906 -0.093457 -0.0257812 0.0386719 0.0483398 0.0386719 0.00966797 -0.0515625 -0.0999023 -0.128906 -0.10957 -0.0805664 -0.0225586 0.0225586 0.0483398 0.0451172 0.0225586 -0.0418945 -0.0805664 -0.116016 -0.103125 -0.0644531 -0.0128906 0.0193359 0.0483398 0.0386719 -0.00322266 -0.0483398 -0.0805664 -0.10957 -0.0837891 -0.0644531 -0.0418945 0.00322266 0.00966797 0.0225586 -0.00644531 -0.0322266 -0.0805664 -0.0999023 -0.0999023 -0.0644531 -0.0515625 -0.0128906 -0.00322266 -0.0128906 -0.0128906 -0.0418945 -0.0644531 -0.093457 -0.0837891 -0.0644531 -0.0257812 -0.00322266 0.0386719 0.0225586 0.0225586 0.00966797 -0.0225586 0.00322266 0.0483398 -0.00322266 -0.00322266 0.00966797 0.154687 0.373828 0.25459 0.0966797 0 -0.116016 -0.103125 -0.0644531 -0.0128906 0.0193359 0.0483398 0.0386719 -0.00322266 -0.0483398 -0.0805664 -0.10957 -0.0837891 -0.0644531 -0.0418945 0.00322266 0.00966797 0.0225586 -0.00644531 -0.0322266 -0.0805664 -0.0999023 -0.0999023 -0.0644531 -0.0515625 -0.0128906 -0.00322266 -0.0128906 -0.0128906 -0.0418945 -0.0644531 -0.093457 -0.0837891 -0.0644531 -0.0257812 -0.00322266 0.0386719 0.0225586 0.0225586 0.00966797 -0.0225586 0.00322266 0.0483398 -0.00322266 -0.00322266 0.00966797 0.154687 0.373828 0.25459 0.0966797 -0.0644531 -0.299707 -0.357715 -0.87334 -0.924902 -0.831445 0.0386719 0.354492 0.286816 0.554297 0.799219 0.360937 -0.699316 -0.438281 -0.20625 -0.14502 0.26748 0.183691 0.834668 0.905566 0.592969 0.489844 0.180469 -0.389941 -1.1376 -0.850781 -0.0644531 0.409277 0.360937 0.61875 0.0999023 0.0612305 0.199805 0.0999023 0.00966797 0.0902344 0.0773437 -0.438281 -0.464062 -0.312598 -0.0837891 0.0612305 0.47373 0.360937 0.61875 0.0386719 0.180469 0.125684 -0.196582 -0.383496 0 -0.299707 -0.357715 -0.87334 -0.924902 -0.831445 0.0386719 0.354492 0.286816 0.554297 0.799219 0.360937 -0.699316 -0.438281 -0.20625 -0.14502 0.26748 0.183691 0.834668 0.905566 0.592969 0.489844 0.180469 -0.389941 -1.1376 -0.850781 -0.0644531 0.409277 0.360937 0.61875 0.0999023 0.0612305 0.199805 0.0999023 0.00966797 0.0902344 0.0773437 -0.438281 -0.464062 -0.312598 -0.0837891 0.0612305 0.47373 0.360937 0.61875 0.0386719 0.180469 0.125684 -0.196582 -0.383496 -0.0225586 0.406055 0.0386719 0.112793 0.0547852 -0.0805664 0.0966797 0.25459 0.283594 0.0483398 -0.0257812 -0.128906 -0.093457 -0.0999023 -0.25459 -0.103125 0.154687 0.0999023 -0.0128906 0.0966797 0.0483398 -0.0580078 -0.151465 -0.0515625 0.0386719 0.0999023 0.0451172 0.0225586 0.0451172 -0.103125 -0.357715 -0.493066 -0.409277 -0.36416 -0.219141 -0.103125 -0.103125 -0.0322266 -0.0741211 -0.196582 -0.270703 -0.312598 -0.264258 -0.196582 -0.128906 -0.0257812 -0.00322266 -0.0128906 -0.0837891 -0.128906 0 0.406055 0.0386719 0.112793 0.0547852 -0.0805664 0.0966797 0.25459 0.283594 0.0483398 -0.0257812 -0.128906 -0.093457 -0.0999023 -0.25459 -0.103125 0.154687 0.0999023 -0.0128906 0.0966797 0.0483398 -0.0580078 -0.151465 -0.0515625 0.0386719 0.0999023 0.0451172 0.0225586 0.0451172 -0.103125 -0.357715 -0.493066 -0.409277 -0.36416 -0.219141 -0.103125 -0.103125 -0.0322266 -0.0741211 -0.196582 -0.270703 -0.312598 -0.264258 -0.196582 -0.128906 -0.0257812 -0.00322266 -0.0128906 -0.0837891 -0.128906 -0.203027 -0.248145 -0.183691 -0.128906 -0.0322266 -0.0257812 -0.0418945 0.00322266 -0.0322266 -0.0257812 -0.0805664 -0.0805664 -0.0515625 0.0225586 0.0225586 0.0386719 0.0902344 0.0773437 0.0483398 -0.0515625 -0.183691 -0.20625 -0.167578 -0.15791 -0.0805664 0.00966797 0.0902344 0.0966797 0.0773437 -0.00322266 -0.0644531 -0.093457 -0.0483398 -0.00644531 0.00966797 -0.0128906 0.0225586 0.0708984 0.0193359 0 -0.0257812 -0.0418945 -0.0644531 -0.0515625 -0.0257812 -0.0128906 0.0386719 0.00966797 -0.0418945 -0.0515625 0 -0.248145 -0.183691 -0.128906 -0.0322266 -0.0257812 -0.0418945 0.00322266 -0.0322266 -0.0257812 -0.0805664 -0.0805664 -0.0515625 0.0225586 0.0225586 0.0386719 0.0902344 0.0773437 0.0483398 -0.0515625 -0.183691 -0.20625 -0.167578 -0.15791 -0.0805664 0.00966797 0.0902344 0.0966797 0.0773437 -0.00322266 -0.0644531 -0.093457 -0.0483398 -0.00644531 0.00966797 -0.0128906 0.0225586 0.0708984 0.0193359 0 -0.0257812 -0.0418945 -0.0644531 -0.0515625 -0.0257812 -0.0128906 0.0386719 0.00966797 -0.0418945 -0.0515625 -0.0805664 -0.103125 -0.0999023 -0.0805664 -0.00644531 0.0193359 0.0225586 0.0225586 0.0386719 0.0225586 -0.0257812 -0.0515625 -0.0483398 -0.0257812 0.00966797 0.0290039 0.0225586 0.0225586 0.0225586 -0.0257812 -0.0515625 -0.0805664 -0.0805664 -0.0483398 0.00966797 0.0451172 0.0708984 0.0902344 0.0773437 0.0386719 -0.00322266 -0.0386719 -0.0257812 -0.00322266 0.0483398 0.0999023 0.141797 0.0999023 0.0773437 0.0225586 -0.0418945 -0.0805664 -0.0580078 -0.0257812 0.0386719 0.0902344 0.125684 0.112793 0.0902344 0.00966797 0 -0.103125 -0.0999023 -0.0805664 -0.00644531 0.0193359 0.0225586 0.0225586 0.0386719 0.0225586 -0.0257812 -0.0515625 -0.0483398 -0.0257812 0.00966797 0.0290039 0.0225586 0.0225586 0.0225586 -0.0257812 -0.0515625 -0.0805664 -0.0805664 -0.0483398 0.00966797 0.0451172 0.0708984 0.0902344 0.0773437 0.0386719 -0.00322266 -0.0386719 -0.0257812 -0.00322266 0.0483398 0.0999023 0.141797 0.0999023 0.0773437 0.0225586 -0.0418945 -0.0805664 -0.0580078 -0.0257812 0.0386719 0.0902344 0.125684 0.112793 0.0902344 0.00966797 -0.0515625 -0.0999023 -0.0805664 -0.0483398 0.00966797 0.0773437 0.0999023 0.0966797 0.0644531 -0.0257812 -0.093457 -0.116016 -0.103125 -0.0483398 0.0225586 0.0483398 0.0483398 0.0612305 0.0483398 -0.00322266 -0.0676758 -0.103125 -0.10957 -0.0580078 0.0225586 0.0902344 0.125684 0.0999023 0.0483398 0.00966797 -0.0483398 -0.093457 -0.0805664 -0.0418945 0.0225586 0.0773437 0.0902344 0.0773437 0.0612305 0.00966797 -0.0515625 -0.0805664 -0.093457 -0.0805664 -0.0128906 0.0290039 0.0773437 0.0483398 0.0386719 -0.00644531 0 -0.0999023 -0.0805664 -0.0483398 0.00966797 0.0773437 0.0999023 0.0966797 0.0644531 -0.0257812 -0.093457 -0.116016 -0.103125 -0.0483398 0.0225586 0.0483398 0.0483398 0.0612305 0.0483398 -0.00322266 -0.0676758 -0.103125 -0.10957 -0.0580078 0.0225586 0.0902344 0.125684 0.0999023 0.0483398 0.00966797 -0.0483398 -0.093457 -0.0805664 -0.0418945 0.0225586 0.0773437 0.0902344 0.0773437 0.0612305 0.00966797 -0.0515625 -0.0805664 -0.093457 -0.0805664 -0.0128906 0.0290039 0.0773437 0.0483398 0.0386719 -0.00644531 -0.0515625 -0.093457 -0.093457 -0.0515625 -0.0257812 0.00322266 0.0225586 0.0225586 0.00322266 -0.0257812 -0.0644531 -0.093457 -0.0837891 -0.0644531 -0.0257812 0.0225586 0.0386719 0.0225586 0.0225586 -0.0225586 -0.0418945 -0.0741211 -0.0741211 -0.0515625 -0.00322266 -0.00644531 0.0483398 0.0483398 0.0386719 0.00322266 -0.0257812 -0.0580078 -0.0580078 -0.0515625 -0.00322266 0.0225586 0.0483398 0.0483398 0.0386719 0 -0.0580078 -0.0837891 -0.0805664 -0.0515625 -0.0128906 -0.00644531 0.0193359 0.0193359 0.0290039 -0.0257812 0 -0.093457 -0.093457 -0.0515625 -0.0257812 0.00322266 0.0225586 0.0225586 0.00322266 -0.0257812 -0.0644531 -0.093457 -0.0837891 -0.0644531 -0.0257812 0.0225586 0.0386719 0.0225586 0.0225586 -0.0225586 -0.0418945 -0.0741211 -0.0741211 -0.0515625 -0.00322266 -0.00644531 0.0483398 0.0483398 0.0386719 0.00322266 -0.0257812 -0.0580078 -0.0580078 -0.0515625 -0.00322266 0.0225586 0.0483398 0.0483398 0.0386719 0 -0.0580078 -0.0837891 -0.0805664 -0.0515625 -0.0128906 -0.00644531 0.0193359 0.0193359 0.0290039 -0.0257812 -0.0580078 -0.0805664 -0.0644531 -0.0515625 -0.00322266 0.0225586 0.0483398 0.0483398 0.0225586 -0.00322266 -0.0515625 -0.093457 -0.093457 -0.0644531 -0.0128906 -0.00322266 0.0773437 0.0547852 0.0483398 0 -0.0515625 -0.0644531 -0.0805664 -0.0515625 -0.00322266 0.0386719 0.0483398 0.0483398 0.0386719 -0.00322266 -0.0515625 -0.103125 -0.093457 -0.0580078 -0.00322266 0.0225586 0.0773437 0.0483398 0.0386719 -0.0128906 -0.0515625 -0.0999023 -0.093457 -0.0644531 -0.0128906 0.0225586 0.0612305 0.0451172 0.0225586 -0.00644531 0 -0.0805664 -0.0644531 -0.0515625 -0.00322266 0.0225586 0.0483398 0.0483398 0.0225586 -0.00322266 -0.0515625 -0.093457 -0.093457 -0.0644531 -0.0128906 -0.00322266 0.0773437 0.0547852 0.0483398 0 -0.0515625 -0.0644531 -0.0805664 -0.0515625 -0.00322266 0.0386719 0.0483398 0.0483398 0.0386719 -0.00322266 -0.0515625 -0.103125 -0.093457 -0.0580078 -0.00322266 0.0225586 0.0773437 0.0483398 0.0386719 -0.0128906 -0.0515625 -0.0999023 -0.093457 -0.0644531 -0.0128906 0.0225586 0.0612305 0.0451172 0.0225586 -0.00644531 -0.0515625 -0.0999023 -0.103125 -0.0805664 -0.0128906 0.0290039 0.0451172 0.0483398 0.0386719 -0.00644531 -0.0515625 -0.103125 -0.093457 -0.0644531 -0.0257812 0.0193359 0.0386719 0.0483398 0.0225586 -0.0128906 -0.0644531 -0.0837891 -0.0837891 -0.0644531 -0.0225586 0.00322266 0.0225586 0.0225586 0.00966797 -0.00644531 -0.0515625 -0.0644531 -0.0741211 -0.0644531 -0.0257812 0.00322266 0.0290039 0.0386719 0.0225586 -0.00322266 -0.0515625 -0.0644531 -0.0644531 -0.0483398 -0.0257812 0.00966797 0.0386719 0.0225586 0.0290039 -0.00322266 0 -0.0999023 -0.103125 -0.0805664 -0.0128906 0.0290039 0.0451172 0.0483398 0.0386719 -0.00644531 -0.0515625 -0.103125 -0.093457 -0.0644531 -0.0257812 0.0193359 0.0386719 0.0483398 0.0225586 -0.0128906 -0.0644531 -0.0837891 -0.0837891 -0.0644531 -0.0225586 0.00322266 0.0225586 0.0225586 0.00966797 -0.00644531 -0.0515625 -0.0644531 -0.0741211 -0.0644531 -0.0257812 0.00322266 0.0290039 0.0386719 0.0225586 -0.00322266 -0.0515625 -0.0644531 -0.0644531 -0.0483398 -0.0257812 0.00966797 0.0386719 0.0225586 0.0290039 -0.00322266 -0.0418945 -0.0515625 -0.0515625 -0.0515625 -0.00322266 0.0225586 0.0225586 0.0483398 0.0225586 0 -0.0515625 -0.0805664 -0.0805664 -0.0515625 -0.00322266 0.0193359 0.0451172 0.0386719 0.0386719 0.00322266 -0.0515625 -0.093457 -0.0644531 -0.0515625 -0.0257812 0.00966797 0.0386719 0.0451172 0.0225586 0 -0.0257812 -0.0805664 -0.0805664 -0.0515625 -0.00644531 0.0225586 0.0612305 0.0612305 0.0386719 -0.0128906 -0.0515625 -0.0837891 -0.0837891 -0.0515625 -0.0128906 0.0225586 0.0612305 0.0386719 0.0483398 -0.00322266 0 -0.0515625 -0.0515625 -0.0515625 -0.00322266 0.0225586 0.0225586 0.0483398 0.0225586 0 -0.0515625 -0.0805664 -0.0805664 -0.0515625 -0.00322266 0.0193359 0.0451172 0.0386719 0.0386719 0.00322266 -0.0515625 -0.093457 -0.0644531 -0.0515625 -0.0257812 0.00966797 0.0386719 0.0451172 0.0225586 0 -0.0257812 -0.0805664 -0.0805664 -0.0515625 -0.00644531 0.0225586 0.0612305 0.0612305 0.0386719 -0.0128906 -0.0515625 -0.0837891 -0.0837891 -0.0515625 -0.0128906 0.0225586 0.0612305 0.0386719 0.0483398 -0.00322266 -0.0483398 -0.0741211 -0.0805664 -0.0580078 -0.0161133 0.0193359 0.0451172 0.0547852 0.0290039 -0.00322266 -0.0418945 -0.0805664 -0.0805664 -0.0644531 -0.0257812 0.00966797 0.0483398 0.0612305 0.0451172 -0.0225586 -0.0322266 -0.0644531 -0.0580078 -0.0644531 -0.0128906 0.00966797 0.0483398 0.0547852 0.0386719 -0.0128906 -0.0418945 -0.0483398 -0.0644531 -0.0515625 -0.0257812 -0.0128906 0.0386719 0.0483398 0.0225586 -0.00322266 -0.0418945 -0.0644531 -0.0644531 -0.0515625 -0.0128906 0.0225586 0.0483398 0.0451172 0.0225586 -0.00322266 0 -0.0741211 -0.0805664 -0.0580078 -0.0161133 0.0193359 0.0451172 0.0547852 0.0290039 -0.00322266 -0.0418945 -0.0805664 -0.0805664 -0.0644531 -0.0257812 0.00966797 0.0483398 0.0612305 0.0451172 -0.0225586 -0.0322266 -0.0644531 -0.0580078 -0.0644531 -0.0128906 0.00966797 0.0483398 0.0547852 0.0386719 -0.0128906 -0.0418945 -0.0483398 -0.0644531 -0.0515625 -0.0257812 -0.0128906 0.0386719 0.0483398 0.0225586 -0.00322266 -0.0418945 -0.0644531 -0.0644531 -0.0515625 -0.0128906 0.0225586 0.0483398 0.0451172 0.0225586 -0.00322266 -0.0418945 -0.0805664 -0.0805664 -0.0644531 -0.0257812 0.00966797 0.0225586 0.0386719 0.0225586 0 -0.0418945 -0.0805664 -0.0805664 -0.0515625 -0.0128906 0 0.0225586 0.0386719 0.0386719 0.00322266 -0.0418945 -0.0805664 -0.0805664 -0.0515625 -0.0225586 0.00966797 0.0225586 0.0386719 0.0290039 0 -0.0257812 -0.0644531 -0.0644531 -0.0515625 -0.0257812 0.00966797 0.0386719 0.0483398 0.0386719 -0.00644531 -0.0515625 -0.0741211 -0.0805664 -0.0644531 -0.00644531 0.0225586 0.0386719 0.0386719 0.0225586 -0.00644531 0 -0.0805664 -0.0805664 -0.0644531 -0.0257812 0.00966797 0.0225586 0.0386719 0.0225586 0 -0.0418945 -0.0805664 -0.0805664 -0.0515625 -0.0128906 0 0.0225586 0.0386719 0.0386719 0.00322266 -0.0418945 -0.0805664 -0.0805664 -0.0515625 -0.0225586 0.00966797 0.0225586 0.0386719 0.0290039 0 -0.0257812 -0.0644531 -0.0644531 -0.0515625 -0.0257812 0.00966797 0.0386719 0.0483398 0.0386719 -0.00644531 -0.0515625 -0.0741211 -0.0805664 -0.0644531 -0.00644531 0.0225586 0.0386719 0.0386719 0.0225586 -0.00644531 -0.0418945 -0.0805664 -0.0805664 -0.0515625 -0.00644531 0.00966797 0.0483398 0.0483398 0.00966797 -0.00322266 -0.0515625 -0.0676758 -0.0837891 -0.0580078 -0.0257812 0.0193359 0.0451172 0.0483398 0.0290039 -0.00322266 -0.0483398 -0.0805664 -0.0644531 -0.0644531 -0.0257812 0.0225586 0.0483398 0.0483398 0.0386719 0.00322266 -0.0515625 -0.0805664 -0.0805664 -0.0644531 -0.0128906 0.00322266 0.0225586 0.0451172 0.0225586 -0.00322266 -0.0257812 -0.0580078 -0.0644531 -0.0515625 -0.0257812 0.00966797 0.0451172 0.0451172 0.0386719 0.00322266 0 -0.0805664 -0.0805664 -0.0515625 -0.00644531 0.00966797 0.0483398 0.0483398 0.00966797 -0.00322266 -0.0515625 -0.0676758 -0.0837891 -0.0580078 -0.0257812 0.0193359 0.0451172 0.0483398 0.0290039 -0.00322266 -0.0483398 -0.0805664 -0.0644531 -0.0644531 -0.0257812 0.0225586 0.0483398 0.0483398 0.0386719 0.00322266 -0.0515625 -0.0805664 -0.0805664 -0.0644531 -0.0128906 0.00322266 0.0225586 0.0451172 0.0225586 -0.00322266 -0.0257812 -0.0580078 -0.0644531 -0.0515625 -0.0257812 0.00966797 0.0451172 0.0451172 0.0386719 0.00322266 -0.0418945 -0.0805664 -0.0741211 -0.0515625 -0.0257812 0.00966797 0.0386719 0.0451172 0.0386719 0.00966797 -0.0418945 -0.0515625 -0.0805664 -0.0515625 -0.00644531 0.0225586 0.0483398 0.0483398 0.0225586 -0.00322266 -0.0515625 -0.0805664 -0.0805664 -0.0515625 -0.0128906 0.00966797 0.0225586 0.0386719 0.0225586 0 -0.0257812 -0.0741211 -0.0644531 -0.0515625 -0.0225586 0 0.0386719 0.0386719 0 -0.00644531 -0.0418945 -0.0805664 -0.0805664 -0.0580078 -0.0257812 0.00966797 0.0225586 0.0483398 0.0225586 -0.0257812 0 -0.0805664 -0.0741211 -0.0515625 -0.0257812 0.00966797 0.0386719 0.0451172 0.0386719 0.00966797 -0.0418945 -0.0515625 -0.0805664 -0.0515625 -0.00644531 0.0225586 0.0483398 0.0483398 0.0225586 -0.00322266 -0.0515625 -0.0805664 -0.0805664 -0.0515625 -0.0128906 0.00966797 0.0225586 0.0386719 0.0225586 0 -0.0257812 -0.0741211 -0.0644531 -0.0515625 -0.0225586 0 0.0386719 0.0386719 0 -0.00644531 -0.0418945 -0.0805664 -0.0805664 -0.0580078 -0.0257812 0.00966797 0.0225586 0.0483398 0.0225586 -0.0257812 -0.0515625 -0.0805664 -0.0805664 -0.0483398 -0.0257812 0.0193359 0.0386719 0.0290039 0.0225586 -0.00322266 -0.0418945 -0.0741211 -0.0644531 -0.0515625 -0.0128906 0.00966797 0.0225586 0.0451172 0.0386719 0.00966797 -0.0257812 -0.0580078 -0.0644531 -0.0515625 -0.0257812 0.00322266 0.0386719 0.0483398 0.0225586 -0.00644531 -0.0515625 -0.0580078 -0.0644531 -0.0580078 -0.0418945 0 0.0225586 0.0386719 0.0225586 0.00322266 -0.0257812 -0.0644531 -0.0644531 -0.0418945 -0.0128906 0 0.0290039 0.0483398 0.0386719 -0.00322266 0 -0.0805664 -0.0805664 -0.0483398 -0.0257812 0.0193359 0.0386719 0.0290039 0.0225586 -0.00322266 -0.0418945 -0.0741211 -0.0644531 -0.0515625 -0.0128906 0.00966797 0.0225586 0.0451172 0.0386719 0.00966797 -0.0257812 -0.0580078 -0.0644531 -0.0515625 -0.0257812 0.00322266 0.0386719 0.0483398 0.0225586 -0.00644531 -0.0515625 -0.0580078 -0.0644531 -0.0580078 -0.0418945 0 0.0225586 0.0386719 0.0225586 0.00322266 -0.0257812 -0.0644531 -0.0644531 -0.0418945 -0.0128906 0 0.0290039 0.0483398 0.0386719 -0.00322266 -0.0483398 -0.0741211 -0.0741211 -0.0515625 -0.0257812 0.00322266 0.0483398 0.0483398 0.0386719 0 -0.0257812 -0.0644531 -0.0837891 -0.0580078 -0.0128906 0.0225586 0.0225586 0.0451172 0.0483398 -0.00322266 -0.0418945 -0.0805664 -0.0805664 -0.0644531 -0.0257812 0.00966797 0.0386719 0.0386719 0.0225586 0 -0.0418945 -0.0805664 -0.0741211 -0.0580078 -0.0225586 0.00966797 0.0386719 0.0483398 0.0290039 0 -0.0257812 -0.0580078 -0.0741211 -0.0515625 -0.0128906 0.0193359 0.0483398 0.0483398 0.0386719 0 0 -0.0741211 -0.0741211 -0.0515625 -0.0257812 0.00322266 0.0483398 0.0483398 0.0386719 0 -0.0257812 -0.0644531 -0.0837891 -0.0580078 -0.0128906 0.0225586 0.0225586 0.0451172 0.0483398 -0.00322266 -0.0418945 -0.0805664 -0.0805664 -0.0644531 -0.0257812 0.00966797 0.0386719 0.0386719 0.0225586 0 -0.0418945 -0.0805664 -0.0741211 -0.0580078 -0.0225586 0.00966797 0.0386719 0.0483398 0.0290039 0 -0.0257812 -0.0580078 -0.0741211 -0.0515625 -0.0128906 0.0193359 0.0483398 0.0483398 0.0386719 0 -0.0322266 -0.0515625 -0.0741211 -0.0644531 -0.0257812 0.00966797 0.0290039 0.0451172 0.0225586 0.00322266 -0.0483398 -0.093457 -0.0805664 -0.0580078 -0.0128906 0.00322266 0.0193359 0.0386719 0.0225586 -0.0128906 -0.0257812 -0.0580078 -0.0644531 -0.0515625 -0.0128906 0.00966797 0.0290039 0.0386719 0.0290039 0 -0.0257812 -0.0644531 -0.0644531 -0.0515625 -0.0257812 0.00966797 0.0290039 0.0386719 0.0225586 0 -0.0418945 -0.0580078 -0.0515625 -0.0515625 -0.0257812 0.00322266 0.0225586 0.0483398 0.0225586 0 0 -0.0515625 -0.0741211 -0.0644531 -0.0257812 0.00966797 0.0290039 0.0451172 0.0225586 0.00322266 -0.0483398 -0.093457 -0.0805664 -0.0580078 -0.0128906 0.00322266 0.0193359 0.0386719 0.0225586 -0.0128906 -0.0257812 -0.0580078 -0.0644531 -0.0515625 -0.0128906 0.00966797 0.0290039 0.0386719 0.0290039 0 -0.0257812 -0.0644531 -0.0644531 -0.0515625 -0.0257812 0.00966797 0.0290039 0.0386719 0.0225586 0 -0.0418945 -0.0580078 -0.0515625 -0.0515625 -0.0257812 0.00322266 0.0225586 0.0483398 0.0225586 0 -0.0418945 -0.0644531 -0.0644531 -0.0515625 -0.0128906 0 0.0225586 0.0225586 0.0225586 0 -0.0322266 -0.0580078 -0.0805664 -0.0515625 -0.0257812 -0.0128906 0.0225586 0.0290039 0.0225586 -0.00644531 -0.0257812 -0.0515625 -0.0515625 -0.0418945 -0.0257812 0 0.0386719 0.0386719 0.0290039 0 -0.0257812 -0.0515625 -0.0644531 -0.0644531 -0.0257812 0 0.0225586 0.0451172 0.0225586 0 -0.0418945 -0.0644531 -0.0580078 -0.0515625 -0.0257812 0.00966797 0.0386719 0.0386719 0.0451172 -0.00322266 0 -0.0644531 -0.0644531 -0.0515625 -0.0128906 0 0.0225586 0.0225586 0.0225586 0 -0.0322266 -0.0580078 -0.0805664 -0.0515625 -0.0257812 -0.0128906 0.0225586 0.0290039 0.0225586 -0.00644531 -0.0257812 -0.0515625 -0.0515625 -0.0418945 -0.0257812 0 0.0386719 0.0386719 0.0290039 0 -0.0257812 -0.0515625 -0.0644531 -0.0644531 -0.0257812 0 0.0225586 0.0451172 0.0225586 0 -0.0418945 -0.0644531 -0.0580078 -0.0515625 -0.0257812 0.00966797 0.0386719 0.0386719 0.0451172 -0.00322266 -0.0515625 -0.0644531 -0.0805664 -0.0515625 -0.0128906 0.00966797 0.0386719 0.0290039 0.0225586 0 -0.0257812 -0.0644531 -0.0644531 -0.0644531 -0.0418945 0.00322266 0.0386719 0.0386719 0.0225586 -0.00644531 -0.0257812 -0.0515625 -0.0805664 -0.0580078 -0.0257812 -0.00644531 0.0225586 0.0386719 0.0225586 -0.00644531 -0.0257812 -0.0515625 -0.0515625 -0.0644531 -0.0257812 0.00322266 0.0290039 0.0483398 0.0225586 0.00322266 -0.0386719 -0.0644531 -0.0644531 -0.0515625 -0.0257812 0 0.0225586 0.0386719 0.0225586 -0.00644531 0 -0.0644531 -0.0805664 -0.0515625 -0.0128906 0.00966797 0.0386719 0.0290039 0.0225586 0 -0.0257812 -0.0644531 -0.0644531 -0.0644531 -0.0418945 0.00322266 0.0386719 0.0386719 0.0225586 -0.00644531 -0.0257812 -0.0515625 -0.0805664 -0.0580078 -0.0257812 -0.00644531 0.0225586 0.0386719 0.0225586 -0.00644531 -0.0257812 -0.0515625 -0.0515625 -0.0644531 -0.0257812 0.00322266 0.0290039 0.0483398 0.0225586 0.00322266 -0.0386719 -0.0644531 -0.0644531 -0.0515625 -0.0257812 0 0.0225586 0.0386719 0.0225586 -0.00644531 -0.0257812 -0.0580078 -0.0580078 -0.0515625 -0.0257812 0.00966797 0.0225586 0.0483398 0.0290039 -0.0128906 -0.0418945 -0.0515625 -0.0644531 -0.0515625 -0.0257812 0.00322266 0.0225586 0.0386719 0.0290039 0.00966797 -0.0257812 -0.0644531 -0.0644531 -0.0547852 -0.0257812 0.00966797 0.0290039 0.0386719 0.0290039 0 -0.0257812 -0.0644531 -0.0805664 -0.0580078 -0.0225586 0.00322266 0.0386719 0.0386719 0.0225586 -0.0128906 -0.0257812 -0.0644531 -0.0741211 -0.0547852 -0.0257812 0.00966797 0.0225586 0.0386719 0.0225586 -0.00322266 0 -0.0580078 -0.0580078 -0.0515625 -0.0257812 0.00966797 0.0225586 0.0483398 0.0290039 -0.0128906 -0.0418945 -0.0515625 -0.0644531 -0.0515625 -0.0257812 0.00322266 0.0225586 0.0386719 0.0290039 0.00966797 -0.0257812 -0.0644531 -0.0644531 -0.0547852 -0.0257812 0.00966797 0.0290039 0.0386719 0.0290039 0 -0.0257812 -0.0644531 -0.0805664 -0.0580078 -0.0225586 0.00322266 0.0386719 0.0386719 0.0225586 -0.0128906 -0.0257812 -0.0644531 -0.0741211 -0.0547852 -0.0257812 0.00966797 0.0225586 0.0386719 0.0225586 -0.00322266 -0.0257812 -0.0580078 -0.0580078 -0.0483398 -0.0257812 0.00966797 0.0386719 0.0483398 0.0386719 -0.00322266 -0.0483398 -0.0644531 -0.0805664 -0.0515625 -0.0257812 0.00966797 0.0290039 0.0386719 0.0290039 0.00966797 -0.0257812 -0.0644531 -0.0515625 -0.0515625 -0.0128906 0.00966797 0.0225586 0.0386719 0.0225586 -0.00644531 -0.0257812 -0.0741211 -0.0741211 -0.0580078 -0.0257812 0.00322266 0.0386719 0.00966797 0.0225586 0 -0.0322266 -0.0515625 -0.0805664 -0.0644531 -0.0257812 0.00966797 0.0290039 0.0225586 0.0354492 -0.00322266 0 