-0.0257812 -0.0257812 -0.0257812 -0.0257812 -0.0128906 0.00966797 0.00966797 0.00966797 -0.0128906 -0.0257812 -0.0644531 -0.0225586 -0.0257812 -0.0225586 -0.00644531 0.00322266 0.0193359 -0.0257812 -0.0225586 -0.0225586 -0.0257812 -0.0257812 -0.0418945 -0.00644531 -0.00322266 0 0 0 -0.0257812 -0.0257812 -0.0257812 -0.0257812 -0.0257812 -0.0257812 -0.00322266 -0.00322266 0 0 -0.0128906 -0.0418945 -0.0257812 -0.0257812 -0.0257812 -0.00644531 -0.0128906 0 0 -0.00644531 -0.0128906 -0.0257812 -0.0257812 -0.0257812 -0.0225586 -0.0225586 -0.00322266 0.00966797 0 -0.00644531 -0.0128906 -0.0225586 -0.0257812 -0.0257812 -0.0257812 -0.00644531 0 0.00322266 0.00966797 -0.00644531 -0.0257812 -0.0128906 -0.0322266 -0.0418945 -0.0322266 -0.00322266 -0.00322266 0.0193359 -0.0128906 -0.00322266 -0.0128906 -0.0257812 -0.0257812 -0.0418945 -0.0225586 0.00322266 0.00966797 0.00322266 -0.00322266 -0.00322266 -0.0322266 -0.0322266 -0.0257812 -0.0257812 -0.00644531 0.00322266 0 -0.00644531 0 -0.00644531 -0.0225586 0 -0.0257812 -0.0257812 -0.0225586 -0.0225586 -0.00322266 0.00966797 0 -0.00644531 -0.0128906 -0.0225586 -0.0257812 -0.0257812 -0.0257812 -0.00644531 0 0.00322266 0.00966797 -0.00644531 -0.0257812 -0.0128906 -0.0322266 -0.0418945 -0.0322266 -0.00322266 -0.00322266 0.0193359 -0.0128906 -0.00322266 -0.0128906 -0.0257812 -0.0257812 -0.0418945 -0.0225586 0.00322266 0.00966797 0.00322266 -0.00322266 -0.00322266 -0.0322266 -0.0322266 -0.0257812 -0.0257812 -0.00644531 0.00322266 0 -0.00644531 0 -0.00644531 -0.0225586 -0.0257812 -0.0257812 -0.0257812 -0.0257812 -0.00644531 -0.00322266 0 0 0 -0.0225586 -0.0418945 -0.0418945 -0.0418945 -0.0257812 -0.00644531 -0.00322266 0.00966797 0.00966797 0.00322266 -0.0257812 -0.0322266 -0.0257812 -0.0257812 -0.0257812 0 0 -0.00322266 0 0 -0.0128906 -0.0257812 -0.0257812 -0.0418945 -0.0128906 -0.0225586 -0.00322266 0.00966797 0 0 -0.0128906 -0.0257812 -0.0515625 -0.0483398 -0.0128906 -0.00644531 -0.0128906 0 0 -0.0128906 -0.0225586 0 -0.0257812 -0.0257812 -0.0257812 -0.00644531 -0.00322266 0 0 0 -0.0225586 -0.0418945 -0.0418945 -0.0418945 -0.0257812 -0.00644531 -0.00322266 0.00966797 0.00966797 0.00322266 -0.0257812 -0.0322266 -0.0257812 -0.0257812 -0.0257812 0 0 -0.00322266 0 0 -0.0128906 -0.0257812 -0.0257812 -0.0418945 -0.0128906 -0.0225586 -0.00322266 0.00966797 0 0 -0.0128906 -0.0257812 -0.0515625 -0.0483398 -0.0128906 -0.00644531 -0.0128906 0 0 -0.0128906 -0.0225586 -0.0257812 -0.0257812 -0.0483398 -0.0257812 -0.0128906 0 0.00322266 -0.00644531 -0.0128906 -0.0225586 -0.0257812 -0.0418945 -0.0257812 -0.0128906 -0.0128906 0.00966797 0.00966797 0.00966797 -0.00322266 -0.0418945 -0.0257812 -0.0418945 -0.0257812 -0.0257812 -0.00322266 0.00966797 0.00966797 0 -0.00644531 -0.0225586 -0.0257812 -0.0257812 -0.0418945 -0.0225586 -0.0128906 0 0.0193359 0.00966797 -0.00322266 -0.0257812 -0.0257812 -0.0257812 -0.0257812 -0.0257812 -0.0128906 0 0.00966797 0 -0.0128906 -0.0225586 0 -0.0257812 -0.0483398 -0.0257812 -0.0128906 0 0.00322266 -0.00644531 -0.0128906 -0.0225586 -0.0257812 -0.0418945 -0.0257812 -0.0128906 -0.0128906 0.00966797 0.00966797 0.00966797 -0.00322266 -0.0418945 -0.0257812 -0.0418945 -0.0257812 -0.0257812 -0.00322266 0.00966797 0.00966797 0 -0.00644531 -0.0225586 -0.0257812 -0.0257812 -0.0418945 -0.0225586 -0.0128906 0 0.0193359 0.00966797 -0.00322266 -0.0257812 -0.0257812 -0.0257812 -0.0257812 -0.0257812 -0.0128906 0 0.00966797 0 -0.0128906 -0.0225586 -0.0418945 -0.0257812 -0.0257812 -0.0128906 -0.00644531 -0.00322266 -0.00322266 0 -0.00644531 -0.0225586 -0.0257812 -0.0257812 -0.0322266 -0.0257812 -0.0225586 -0.00322266 0.00322266 -0.00644531 0 -0.00322266 -0.0386719 -0.0322266 -0.0386719 -0.0257812 -0.0128906 0.00322266 0.00322266 -0.00644531 -0.0128906 -0.0225586 -0.0257812 -0.0257812 -0.0257812 -0.0225586 -0.00322266 0 0.00322266 0 -0.00644531 -0.0257812 -0.0257812 -0.0257812 -0.0257812 -0.0128906 -0.00322266 -0.00644531 0.00322266 -0.00322266 0 -0.0225586 0 -0.0257812 -0.0257812 -0.0128906 -0.00644531 -0.00322266 -0.00322266 0 -0.00644531 -0.0225586 -0.0257812 -0.0257812 -0.0322266 -0.0257812 -0.0225586 -0.00322266 0.00322266 -0.00644531 0 -0.00322266 -0.0386719 -0.0322266 -0.0386719 -0.0257812 -0.0128906 0.00322266 0.00322266 -0.00644531 -0.0128906 -0.0225586 -0.0257812 -0.0257812 -0.0257812 -0.0225586 -0.00322266 0 0.00322266 0 -0.00644531 -0.0257812 -0.0257812 -0.0257812 -0.0257812 -0.0128906 -0.00322266 -0.00644531 0.00322266 -0.00322266 0 -0.0225586 -0.0483398 -0.0322266 -0.0322266 -0.0257812 -0.0128906 0 0.00322266 0.00966797 0 -0.00644531 -0.0418945 -0.0418945 -0.0257812 -0.0257812 -0.00322266 -0.00322266 0 0.0193359 0 -0.0225586 -0.0418945 -0.0322266 -0.0257812 -0.0257812 -0.0128906 0 -0.00322266 -0.00322266 -0.00322266 -0.0225586 -0.0257812 -0.0257812 -0.0225586 -0.0257812 -0.0257812 0 0 0.00322266 -0.00322266 -0.0257812 -0.0257812 -0.0418945 -0.0257812 -0.0225586 -0.00322266 0.00322266 0.00322266 0.0193359 -0.0257812 -0.0128906 0 -0.0322266 -0.0322266 -0.0257812 -0.0128906 0 0.00322266 0.00966797 0 -0.00644531 -0.0418945 -0.0418945 -0.0257812 -0.0257812 -0.00322266 -0.00322266 0 0.0193359 0 -0.0225586 -0.0418945 -0.0322266 -0.0257812 -0.0257812 -0.0128906 0 -0.00322266 -0.00322266 -0.00322266 -0.0225586 -0.0257812 -0.0257812 -0.0225586 -0.0257812 -0.0257812 0 0 0.00322266 -0.00322266 -0.0257812 -0.0257812 -0.0418945 -0.0257812 -0.0225586 -0.00322266 0.00322266 0.00322266 0.0193359 -0.0257812 -0.0128906 -0.0257812 -0.0515625 -0.0322266 -0.0257812 -0.0128906 0.00322266 0.00322266 0 -0.00644531 -0.0257812 -0.0257812 -0.0257812 -0.0257812 -0.0225586 0 0 0.00966797 -0.00322266 -0.0128906 -0.0257812 -0.0257812 -0.0257812 -0.0418945 -0.0225586 0 -0.00644531 -0.00322266 0 -0.0128906 -0.0257812 -0.0257812 -0.0257812 -0.0257812 -0.00322266 -0.0128906 0 0.00322266 -0.0128906 -0.0257812 -0.0257812 -0.0418945 -0.0257812 -0.0418945 -0.0225586 0 0.0193359 0.00322266 -0.00322266 -0.00644531 -0.0257812 0 -0.0515625 -0.0322266 -0.0257812 -0.0128906 0.00322266 0.00322266 0 -0.00644531 -0.0257812 -0.0257812 -0.0257812 -0.0257812 -0.0225586 0 0 0.00966797 -0.00322266 -0.0128906 -0.0257812 -0.0257812 -0.0257812 -0.0418945 -0.0225586 0 -0.00644531 -0.00322266 0 -0.0128906 -0.0257812 -0.0257812 -0.0257812 -0.0257812 -0.00322266 -0.0128906 0 0.00322266 -0.0128906 -0.0257812 -0.0257812 -0.0418945 -0.0257812 -0.0418945 -0.0225586 0 0.0193359 0.00322266 -0.00322266 -0.00644531 -0.0257812 -0.0322266 -0.0322266 -0.0257812 -0.0257812 -0.00322266 -0.00322266 0.00966797 -0.00322266 -0.0128906 -0.0257812 -0.0257812 -0.0257812 -0.0257812 -0.0257812 -0.0128906 0 0.00966797 -0.00644531 -0.0128906 -0.0257812 -0.0257812 -0.0418945 -0.0257812 -0.0257812 -0.00644531 0.00322266 0.00966797 -0.00644531 -0.0128906 -0.0257812 -0.0483398 -0.0257812 -0.0257812 -0.0257812 -0.0257812 -0.0128906 -0.00322266 -0.00322266 -0.0257812 -0.0128906 -0.0257812 -0.0257812 -0.0257812 -0.0128906 -0.0128906 -0.0128906 -0.00322266 0.00322266 -0.0128906 -0.0257812 0 -0.0322266 -0.0257812 -0.0257812 -0.00322266 -0.00322266 0.00966797 -0.00322266 -0.0128906 -0.0257812 -0.0257812 -0.0257812 -0.0257812 -0.0257812 -0.0128906 0 0.00966797 -0.00644531 -0.0128906 -0.0257812 -0.0257812 -0.0418945 -0.0257812 -0.0257812 -0.00644531 0.00322266 0.00966797 -0.00644531 -0.0128906 -0.0257812 -0.0483398 -0.0257812 -0.0257812 -0.0257812 -0.0257812 -0.0128906 -0.00322266 -0.00322266 -0.0257812 -0.0128906 -0.0257812 -0.0257812 -0.0257812 -0.0128906 -0.0128906 -0.0128906 -0.00322266 0.00322266 -0.0128906 -0.0257812 -0.0225586 -0.0257812 -0.0257812 -0.0225586 -0.0128906 0 0.00966797 -0.00322266 -0.0128906 -0.0225586 -0.0322266 -0.0418945 -0.0257812 -0.0128906 -0.00644531 -0.00322266 -0.00322266 -0.0128906 -0.0257812 -0.0257812 -0.0257812 -0.0128906 -0.0257812 -0.0128906 -0.00322266 -0.0128906 -0.0128906 -0.00322266 -0.0225586 -0.0257812 -0.0257812 -0.0418945 -0.0257812 -0.0128906 0 0 0 -0.00644531 -0.0225586 -0.0257812 -0.0128906 -0.0257812 -0.0225586 -0.0128906 -0.00644531 0 0 -0.00644531 -0.0225586 -0.0257812 0 -0.0257812 -0.0257812 -0.0225586 -0.0128906 0 0.00966797 -0.00322266 -0.0128906 -0.0225586 -0.0322266 -0.0418945 -0.0257812 -0.0128906 -0.00644531 -0.00322266 -0.00322266 -0.0128906 -0.0257812 -0.0257812 -0.0257812 -0.0128906 -0.0257812 -0.0128906 -0.00322266 -0.0128906 -0.0128906 -0.00322266 -0.0225586 -0.0257812 -0.0257812 -0.0418945 -0.0257812 -0.0128906 0 0 0 -0.00644531 -0.0225586 -0.0257812 -0.0128906 -0.0257812 -0.0225586 -0.0128906 -0.00644531 0 0 -0.00644531 -0.0225586 -0.0257812 -0.0257812 -0.0257812 -0.0257812 -0.0128906 -0.00322266 0 0 -0.00322266 -0.00322266 -0.0257812 -0.0257812 -0.0257812 -0.0225586 -0.0128906 -0.00322266 -0.00644531 -0.0128906 -0.00644531 -0.00644531 -0.0257812 -0.0257812 -0.0418945 -0.0257812 -0.0257812 -0.00644531 -0.00644531 0.00966797 0.00322266 -0.00322266 -0.0128906 -0.0418945 -0.0257812 -0.0225586 -0.0225586 -0.00644531 -0.00644531 0 -0.00322266 -0.0257812 -0.0257812 -0.0257812 -0.0257812 -0.0257812 -0.0128906 -0.00322266 0 -0.00322266 -0.0128906 -0.0128906 -0.0257812 0 -0.0257812 -0.0257812 -0.0128906 -0.00322266 0 0 -0.00322266 -0.00322266 -0.0257812 -0.0257812 -0.0257812 -0.0225586 -0.0128906 -0.00322266 -0.00644531 -0.0128906 -0.00644531 -0.00644531 -0.0257812 -0.0257812 -0.0418945 -0.0257812 -0.0257812 -0.00644531 -0.00644531 0.00966797 0.00322266 -0.00322266 -0.0128906 -0.0418945 -0.0257812 -0.0225586 -0.0225586 -0.00644531 -0.00644531 0 -0.00322266 -0.0257812 -0.0257812 -0.0257812 -0.0257812 -0.0257812 -0.0128906 -0.00322266 0 -0.00322266 -0.0128906 -0.0128906 -0.0257812 -0.0257812 -0.0257812 -0.0257812 -0.0128906 -0.0225586 -0.00644531 0 0 -0.00644531 -0.0257812 -0.0257812 -0.0322266 -0.0128906 -0.0128906 -0.00322266 0.00322266 0 -0.00322266 -0.0257812 -0.0257812 -0.0128906 -0.0483398 -0.0386719 -0.0225586 -0.00322266 0 0 0 -0.0128906 -0.0257812 -0.0257812 -0.0257812 -0.0257812 -0.00644531 0.00322266 0.00322266 0.0225586 -0.0128906 -0.0257812 -0.0257812 -0.0257812 -0.0257812 -0.0128906 -0.0257812 -0.0225586 -0.0128906 -0.00322266 -0.0128906 -0.0128906 -0.0128906 0 -0.0257812 -0.0257812 -0.0128906 -0.0225586 -0.00644531 0 0 -0.00644531 -0.0257812 -0.0257812 -0.0322266 -0.0128906 -0.0128906 -0.00322266 0.00322266 0 -0.00322266 -0.0257812 -0.0257812 -0.0128906 -0.0483398 -0.0386719 -0.0225586 -0.00322266 0 0 0 -0.0128906 -0.0257812 -0.0257812 -0.0257812 -0.0257812 -0.00644531 0.00322266 0.00322266 0.0225586 -0.0128906 -0.0257812 -0.0257812 -0.0257812 -0.0257812 -0.0128906 -0.0257812 -0.0225586 -0.0128906 -0.00322266 -0.0128906 -0.0128906 -0.0128906 -0.0257812 -0.0257812 -0.0257812 -0.0128906 -0.00322266 -0.00322266 0 -0.00644531 -0.0257812 -0.0257812 -0.0257812 -0.0257812 -0.0225586 -0.0257812 -0.0128906 0 0 0 -0.0225586 -0.0225586 -0.0322266 -0.0257812 -0.0128906 -0.0128906 -0.00644531 0 0 -0.0128906 -0.0257812 -0.0322266 -0.0257812 -0.0257812 -0.0418945 -0.0128906 -0.00322266 0 0 -0.00644531 -0.0128906 -0.0257812 -0.0322266 -0.0386719 -0.0128906 -0.0128906 -0.00322266 0.00322266 0 -0.00644531 -0.0257812 -0.0257812 0 -0.0257812 -0.0257812 -0.0128906 -0.00322266 -0.00322266 0 -0.00644531 -0.0257812 -0.0257812 -0.0257812 -0.0257812 -0.0225586 -0.0257812 -0.0128906 0 0 0 -0.0225586 -0.0225586 -0.0322266 -0.0257812 -0.0128906 -0.0128906 -0.00644531 0 0 -0.0128906 -0.0257812 -0.0322266 -0.0257812 -0.0257812 -0.0418945 -0.0128906 -0.00322266 0 0 -0.00644531 -0.0128906 -0.0257812 -0.0322266 -0.0386719 -0.0128906 -0.0128906 -0.00322266 0.00322266 0 -0.00644531 -0.0257812 -0.0257812 -0.0257812 -0.0322266 -0.0257812 -0.0128906 -0.00644531 -0.00322266 0.00322266 -0.00644531 -0.0128906 -0.0257812 -0.0418945 -0.0257812 -0.0128906 0.00966797 0.00966797 0.00322266 -0.00322266 -0.0128906 -0.0257812 -0.0322266 -0.0418945 -0.0322266 -0.0257812 -0.0128906 -0.00322266 0 0 -0.00322266 -0.0128906 -0.0257812 -0.0322266 -0.0257812 -0.0128906 -0.0128906 -0.00322266 -0.00644531 -0.00322266 -0.00322266 -0.00644531 -0.0257812 -0.0386719 -0.0322266 -0.0257812 -0.0128906 -0.00322266 0 -0.00644531 -0.00322266 -0.0257812 -0.0257812 0 -0.0322266 -0.0257812 -0.0128906 -0.00644531 -0.00322266 0.00322266 -0.00644531 -0.0128906 -0.0257812 -0.0418945 -0.0257812 -0.0128906 0.00966797 0.00966797 0.00322266 -0.00322266 -0.0128906 -0.0257812 -0.0322266 -0.0418945 -0.0322266 -0.0257812 -0.0128906 -0.00322266 0 0 -0.00322266 -0.0128906 -0.0257812 -0.0322266 -0.0257812 -0.0128906 -0.0128906 -0.00322266 -0.00644531 -0.00322266 -0.00322266 -0.00644531 -0.0257812 -0.0386719 -0.0322266 -0.0257812 -0.0128906 -0.00322266 0 -0.00644531 -0.00322266 -0.0257812 -0.0257812 -0.0257812 -0.0257812 -0.0257812 -0.0225586 -0.00322266 0.00322266 -0.00322266 -0.00322266 -0.0128906 -0.0257812 -0.0257812 -0.0257812 -0.0257812 -0.0225586 -0.0128906 -0.0128906 -0.00322266 -0.0128906 -0.0418945 -0.0483398 -0.0418945 -0.0257812 0.00966797 0.0386719 0.0225586 0.00966797 0 -0.0418945 -0.0580078 -0.0483398 -0.0483398 -0.0128906 0 0.0225586 0.0225586 0.0225586 0.0225586 -0.0257812 -0.0741211 -0.0515625 -0.0418945 0.154687 0.125684 0.180469 0.0902344 0.0483398 0.0225586 -0.116016 -0.15791 -0.183691 0 -0.0257812 -0.0257812 -0.0225586 -0.00322266 0.00322266 -0.00322266 -0.00322266 -0.0128906 -0.0257812 -0.0257812 -0.0257812 -0.0257812 -0.0225586 -0.0128906 -0.0128906 -0.00322266 -0.0128906 -0.0418945 -0.0483398 -0.0418945 -0.0257812 0.00966797 0.0386719 0.0225586 0.00966797 0 -0.0418945 -0.0580078 -0.0483398 -0.0483398 -0.0128906 0 0.0225586 0.0225586 0.0225586 0.0225586 -0.0257812 -0.0741211 -0.0515625 -0.0418945 0.154687 0.125684 0.180469 0.0902344 0.0483398 0.0225586 -0.116016 -0.15791 -0.183691 -0.290039 -0.128906 -0.515625 -0.299707 -0.196582 -0.177246 -0.335156 -0.232031 -0.515625 -0.0225586 0.338379 0.0612305 0.489844 0.502734 0.112793 0.348047 0.409277 0.435059 -0.66709 -0.0580078 -0.0257812 0.0902344 -0.25459 0.0773437 0.309375 0.641309 0.251367 0.203027 -0.0999023 0.0773437 -0.228809 -0.00322266 -0.203027 -0.10957 0.154687 0.228809 0.26748 -0.55752 -1.16016 -0.547852 -0.196582 -0.167578 -0.0644531 0.46084 0.141797 -0.15791 -0.312598 -0.238477 -0.103125 -0.186914 0 -0.128906 -0.515625 -0.299707 -0.196582 -0.177246 -0.335156 -0.232031 -0.515625 -0.0225586 0.338379 0.0612305 0.489844 0.502734 0.112793 0.348047 0.409277 0.435059 -0.66709 -0.0580078 -0.0257812 0.0902344 -0.25459 0.0773437 0.309375 0.641309 0.251367 0.203027 -0.0999023 0.0773437 -0.228809 -0.00322266 -0.203027 -0.10957 0.154687 0.228809 0.26748 -0.55752 -1.16016 -0.547852 -0.196582 -0.167578 -0.0644531 0.46084 0.141797 -0.15791 -0.312598 -0.238477 -0.103125 -0.186914 0.0225586 -0.286816 -0.322266 0.180469 0.783105 0.979687 0.744434 0.46084 0.251367 0.0451172 0.0773437 0.00966797 -0.103125 -0.0805664 -0.0483398 -0.0805664 -0.128906 -0.186914 -0.116016 -0.103125 -0.0418945 0.0225586 0.0805664 0.141797 0.141797 0.0966797 0.0547852 0.0225586 -0.00644531 -0.00322266 -0.0257812 0.0225586 0 0.0386719 0.0225586 0.0225586 0.00322266 -0.0515625 -0.125684 -0.103125 -0.093457 -0.0837891 -0.0515625 -0.0805664 -0.116016 -0.093457 -0.103125 -0.0837891 -0.15791 -0.186914 0 -0.286816 -0.322266 0.180469 0.783105 0.979687 0.744434 0.46084 0.251367 0.0451172 0.0773437 0.00966797 -0.103125 -0.0805664 -0.0483398 -0.0805664 -0.128906 -0.186914 -0.116016 -0.103125 -0.0418945 0.0225586 0.0805664 0.141797 0.141797 0.0966797 0.0547852 0.0225586 -0.00644531 -0.00322266 -0.0257812 0.0225586 0 0.0386719 0.0225586 0.0225586 0.00322266 -0.0515625 -0.125684 -0.103125 -0.093457 -0.0837891 -0.0515625 -0.0805664 -0.116016 -0.093457 -0.103125 -0.0837891 -0.15791 -0.186914 -0.116016 -0.128906 -0.116016 -0.093457 -0.128906 -0.128906 -0.116016 -0.128906 -0.093457 -0.0837891 -0.10957 -0.0580078 -0.0483398 -0.0225586 0.0225586 0.0386719 0.0483398 0.0612305 0.0290039 0.0290039 0.0386719 0.00966797 0.00966797 0.0483398 0.0612305 0.0290039 0.00322266 -0.0225586 -0.0322266 -0.0418945 -0.0257812 0.0193359 0.0225586 0.0451172 0.0483398 0.0386719 -0.00322266 -0.0128906 -0.0257812 -0.0257812 -0.0322266 -0.00322266 -0.00322266 -0.00644531 0.00966797 0 -0.0257812 -0.0741211 -0.0805664 -0.093457 0 -0.128906 -0.116016 -0.093457 -0.128906 -0.128906 -0.116016 -0.128906 -0.093457 -0.0837891 -0.10957 -0.0580078 -0.0483398 -0.0225586 0.0225586 0.0386719 0.0483398 0.0612305 0.0290039 0.0290039 0.0386719 0.00966797 0.00966797 0.0483398 0.0612305 0.0290039 0.00322266 -0.0225586 -0.0322266 -0.0418945 -0.0257812 0.0193359 0.0225586 0.0451172 0.0483398 0.0386719 -0.00322266 -0.0128906 -0.0257812 -0.0257812 -0.0322266 -0.00322266 -0.00322266 -0.00644531 0.00966797 0 -0.0257812 -0.0741211 -0.0805664 -0.093457 -0.0644531 -0.0257812 -0.0257812 0.0225586 0.0225586 0.0225586 -0.0418945 -0.0515625 -0.0515625 -0.093457 -0.10957 -0.103125 -0.0805664 -0.0322266 -0.0483398 -0.00644531 -0.0418945 -0.0805664 -0.103125 -0.103125 -0.0741211 -0.0418945 -0.0128906 0.0225586 0.0451172 0.0225586 0 -0.0257812 -0.0483398 -0.0418945 -0.0257812 0.00966797 0.0451172 0.0612305 0.0547852 0.0483398 0 -0.0128906 -0.0418945 -0.0515625 -0.0322266 0.00966797 0.0386719 0.0612305 0.0483398 0.0547852 0.0225586 -0.0257812 -0.0483398 -0.0515625 0 -0.0257812 -0.0257812 0.0225586 0.0225586 0.0225586 -0.0418945 -0.0515625 -0.0515625 -0.093457 -0.10957 -0.103125 -0.0805664 -0.0322266 -0.0483398 -0.00644531 -0.0418945 -0.0805664 -0.103125 -0.103125 -0.0741211 -0.0418945 -0.0128906 0.0225586 0.0451172 0.0225586 0 -0.0257812 -0.0483398 -0.0418945 -0.0257812 0.00966797 0.0451172 0.0612305 0.0547852 0.0483398 0 -0.0128906 -0.0418945 -0.0515625 -0.0322266 0.00966797 0.0386719 0.0612305 0.0483398 0.0547852 0.0225586 -0.0257812 -0.0483398 -0.0515625 -0.0418945 -0.0128906 0.0386719 0.0483398 0.0386719 0.0225586 0 -0.0257812 -0.0741211 -0.0805664 -0.0644531 -0.0322266 -0.00322266 0.0193359 0.0225586 -0.00322266 -0.0322266 -0.0644531 -0.0805664 -0.103125 -0.0644531 -0.0257812 0 0.0225586 0.0225586 -0.0128906 -0.0257812 -0.0483398 -0.0644531 -0.0805664 -0.0644531 -0.0418945 0.00966797 0.0225586 0.00966797 0.0225586 0 -0.0257812 -0.0515625 -0.0644531 -0.0515625 -0.0257812 0.00966797 0.0193359 0.0225586 0.0225586 -0.00322266 -0.0257812 -0.0515625 -0.0515625 0 -0.0128906 0.0386719 0.0483398 0.0386719 0.0225586 0 -0.0257812 -0.0741211 -0.0805664 -0.0644531 -0.0322266 -0.00322266 0.0193359 0.0225586 -0.00322266 -0.0322266 -0.0644531 -0.0805664 -0.103125 -0.0644531 -0.0257812 0 0.0225586 0.0225586 -0.0128906 -0.0257812 -0.0483398 -0.0644531 -0.0805664 -0.0644531 -0.0418945 0.00966797 0.0225586 0.00966797 0.0225586 0 -0.0257812 -0.0515625 -0.0644531 -0.0515625 -0.0257812 0.00966797 0.0193359 0.0225586 0.0225586 -0.00322266 -0.0257812 -0.0515625 -0.0515625 -0.0483398 -0.0225586 -0.00322266 0 0.0193359 0 -0.0128906 -0.0418945 -0.0483398 -0.0418945 -0.0418945 -0.0483398 -0.0257812 0.00966797 -0.0418945 0 0.00966797 -0.00322266 -0.0322266 -0.0483398 -0.0257812 -0.00644531 0.0290039 0.0483398 0.0708984 0.0483398 0.0225586 -0.0128906 -0.0257812 -0.0418945 -0.0418945 -0.0257812 -0.00644531 0.0225586 0.0290039 0.0225586 -0.00644531 -0.0257812 -0.0515625 -0.0515625 -0.0418945 -0.0225586 0.00966797 0.0225586 0.0290039 0.00966797 -0.00644531 -0.0128906 -0.0418945 -0.0515625 0 -0.0225586 -0.00322266 0 0.0193359 0 -0.0128906 -0.0418945 -0.0483398 -0.0418945 -0.0418945 -0.0483398 -0.0257812 0.00966797 -0.0418945 0 0.00966797 -0.00322266 -0.0322266 -0.0483398 -0.0257812 -0.00644531 0.0290039 0.0483398 0.0708984 0.0483398 0.0225586 -0.0128906 -0.0257812 -0.0418945 -0.0418945 -0.0257812 -0.00644531 0.0225586 0.0290039 0.0225586 -0.00644531 -0.0257812 -0.0515625 -0.0515625 -0.0418945 -0.0225586 0.00966797 0.0225586 0.0290039 0.00966797 -0.00644531 -0.0128906 -0.0418945 -0.0515625 -0.0515625 -0.0257812 0 0.00966797 0.0290039 0.0225586 -0.0128906 -0.0322266 -0.0580078 -0.0644531 -0.0515625 -0.0322266 -0.00644531 0.0225586 0.0225586 0.0225586 -0.0128906 -0.0322266 -0.0741211 -0.0644531 -0.0483398 -0.0418945 -0.0225586 0.00322266 0.00966797 -0.00322266 -0.00644531 -0.0257812 -0.0515625 -0.0515625 -0.0418945 -0.0257812 -0.0225586 0.0225586 0.0225586 0.0225586 0 -0.0257812 -0.0515625 -0.0515625 -0.0418945 -0.0418945 0 0.0193359 0.0451172 0.0225586 0 -0.0257812 -0.0644531 -0.0644531 0 -0.0257812 0 0.00966797 0.0290039 0.0225586 -0.0128906 -0.0322266 -0.0580078 -0.0644531 -0.0515625 -0.0322266 -0.00644531 0.0225586 0.0225586 0.0225586 -0.0128906 -0.0322266 -0.0741211 -0.0644531 -0.0483398 -0.0418945 -0.0225586 0.00322266 0.00966797 -0.00322266 -0.00644531 -0.0257812 -0.0515625 -0.0515625 -0.0418945 -0.0257812 -0.0225586 0.0225586 0.0225586 0.0225586 0 -0.0257812 -0.0515625 -0.0515625 -0.0418945 -0.0418945 0 0.0193359 0.0451172 0.0225586 0 -0.0257812 -0.0644531 -0.0644531 -0.0515625 -0.0225586 0 0.0225586 0.0290039 0.00966797 0 -0.0257812 -0.0580078 -0.0644531 -0.0644531 -0.0225586 0.00966797 0.0225586 0.0225586 0.0483398 -0.0128906 -0.0418945 -0.0515625 -0.0483398 -0.0515625 -0.0257812 0.0225586 0.0386719 0.0386719 0.0225586 0 -0.0257812 -0.0644531 -0.0805664 -0.0805664 -0.0257812 0 0.0386719 0.0483398 0.0225586 -0.0257812 -0.0322266 -0.0741211 -0.0741211 -0.0515625 -0.0322266 0.00966797 0.0483398 0.0483398 0.0483398 -0.00644531 -0.0418945 -0.0805664 -0.0805664 0 -0.0225586 0 0.0225586 0.0290039 0.00966797 0 -0.0257812 -0.0580078 -0.0644531 -0.0644531 -0.0225586 0.00966797 0.0225586 0.0225586 0.0483398 -0.0128906 -0.0418945 -0.0515625 -0.0483398 -0.0515625 -0.0257812 0.0225586 0.0386719 0.0386719 0.0225586 0 -0.0257812 -0.0644531 -0.0805664 -0.0805664 -0.0257812 0 0.0386719 0.0483398 0.0225586 -0.0257812 -0.0322266 -0.0741211 -0.0741211 -0.0515625 -0.0322266 0.00966797 0.0483398 0.0483398 0.0483398 -0.00644531 -0.0418945 -0.0805664 -0.0805664 -0.0805664 -0.0257812 0.0193359 0.0451172 0.0483398 0.0225586 0 -0.0418945 -0.0741211 -0.0644531 -0.0644531 -0.0257812 0 0.0451172 0.0483398 0.0225586 0 -0.0257812 -0.0741211 -0.0805664 -0.0515625 -0.0225586 0.00966797 0.0225586 0.0451172 0.0225586 -0.00644531 -0.0257812 -0.0644531 -0.0805664 -0.0515625 -0.0257812 0.00322266 0.0225586 0.0225586 0.0225586 -0.00322266 -0.0225586 -0.0483398 -0.0644531 -0.0515625 -0.0257812 0 0.00322266 0.0225586 0.00966797 -0.00322266 -0.0257812 -0.0483398 -0.0515625 0 -0.0257812 0.0193359 0.0451172 0.0483398 0.0225586 0 -0.0418945 -0.0741211 -0.0644531 -0.0644531 -0.0257812 0 0.0451172 0.0483398 0.0225586 0 -0.0257812 -0.0741211 -0.0805664 -0.0515625 -0.0225586 0.00966797 0.0225586 0.0451172 0.0225586 -0.00644531 -0.0257812 -0.0644531 -0.0805664 -0.0515625 -0.0257812 0.00322266 0.0225586 0.0225586 0.0225586 -0.00322266 -0.0225586 -0.0483398 -0.0644531 -0.0515625 -0.0257812 0 0.00322266 0.0225586 0.00966797 -0.00322266 -0.0257812 -0.0483398 -0.0515625 -0.0515625 -0.0257812 0.00322266 0.0225586 0.0386719 0.0225586 -0.00322266 -0.0257812 -0.0580078 -0.0515625 -0.0386719 -0.0257812 -0.0128906 0.00966797 0.0290039 0.0225586 -0.0128906 -0.0257812 -0.0644531 -0.0644531 -0.0515625 -0.0257812 -0.00644531 0.00966797 0.0225586 0.00966797 -0.00322266 -0.0257812 -0.0515625 -0.0580078 -0.0418945 -0.0257812 0 0.00966797 0.0386719 0.0225586 -0.00322266 -0.0418945 -0.0805664 -0.0644531 -0.0418945 -0.0257812 -0.00322266 0.0225586 0.0225586 0.0225586 0 -0.0257812 -0.0515625 -0.0644531 0 -0.0257812 0.00322266 0.0225586 0.0386719 0.0225586 -0.00322266 -0.0257812 -0.0580078 -0.0515625 -0.0386719 -0.0257812 -0.0128906 0.00966797 0.0290039 0.0225586 -0.0128906 -0.0257812 -0.0644531 -0.0644531 -0.0515625 -0.0257812 -0.00644531 0.00966797 0.0225586 0.00966797 -0.00322266 -0.0257812 -0.0515625 -0.0580078 -0.0418945 -0.0257812 0 0.00966797 0.0386719 0.0225586 -0.00322266 -0.0418945 -0.0805664 -0.0644531 -0.0418945 -0.0257812 -0.00322266 0.0225586 0.0225586 0.0225586 0 -0.0257812 -0.0515625 -0.0644531 -0.0515625 -0.0257812 0 0.0225586 0.0290039 0.00966797 -0.00322266 -0.0257812 -0.0644531 -0.0644531 -0.0515625 -0.0257812 0.00966797 0.0483398 0.0225586 0.0225586 0 -0.0418945 -0.0515625 -0.0644531 -0.0644531 -0.0128906 -0.00322266 0.0193359 0.0225586 0.0386719 -0.00322266 -0.0418945 -0.0515625 -0.0644531 -0.0580078 -0.0225586 0.00966797 0.0386719 0.0225586 0.0225586 0.00322266 -0.0257812 -0.0580078 -0.0644531 -0.0515625 -0.0257812 0.00322266 0.0386719 0.0483398 0.0225586 0 -0.0257812 -0.0644531 -0.0644531 0 -0.0257812 0 0.0225586 0.0290039 0.00966797 -0.00322266 -0.0257812 -0.0644531 -0.0644531 -0.0515625 -0.0257812 0.00966797 0.0483398 0.0225586 0.0225586 0 -0.0418945 -0.0515625 -0.0644531 -0.0644531 -0.0128906 -0.00322266 0.0193359 0.0225586 0.0386719 -0.00322266 -0.0418945 -0.0515625 -0.0644531 -0.0580078 -0.0225586 0.00966797 0.0386719 0.0225586 0.0225586 0.00322266 -0.0257812 -0.0580078 -0.0644531 -0.0515625 -0.0257812 0.00322266 0.0386719 0.0483398 0.0225586 0 -0.0257812 -0.0644531 -0.0644531 -0.0515625 -0.0225586 0.00966797 0.0451172 0.0483398 0.0225586 -0.00322266 -0.0257812 -0.0805664 -0.0805664 -0.0515625 -0.0257812 0.00966797 0.0451172 0.0386719 0.0386719 -0.00322266 -0.0257812 -0.0837891 -0.0805664 -0.0644531 -0.0418945 0 0.0386719 0.0386719 0.0225586 -0.00322266 -0.0418945 -0.0741211 -0.0805664 -0.0580078 -0.0257812 0.00966797 0.0451172 0.0483398 0.0225586 0.00966797 -0.0418945 -0.0644531 -0.0805664 -0.0515625 -0.0257812 0.00966797 0.0225586 0.0451172 0.0225586 -0.00322266 -0.0322266 -0.0644531 -0.0644531 0 -0.0225586 0.00966797 0.0451172 0.0483398 0.0225586 -0.00322266 -0.0257812 -0.0805664 -0.0805664 -0.0515625 -0.0257812 0.00966797 0.0451172 0.0386719 0.0386719 -0.00322266 -0.0257812 -0.0837891 -0.0805664 -0.0644531 -0.0418945 0 0.0386719 0.0386719 0.0225586 -0.00322266 -0.0418945 -0.0741211 -0.0805664 -0.0580078 -0.0257812 0.00966797 0.0451172 0.0483398 0.0225586 0.00966797 -0.0418945 -0.0644531 -0.0805664 -0.0515625 -0.0257812 0.00966797 0.0225586 0.0451172 0.0225586 -0.00322266 -0.0322266 -0.0644531 -0.0644531 -0.0515625 -0.0225586 0.00966797 0.0386719 0.0290039 0.0225586 -0.00322266 -0.0257812 -0.0515625 -0.0580078 -0.0515625 -0.0322266 0 0.0386719 0.0290039 0.0193359 0 -0.0257812 -0.0515625 -0.0644531 -0.0515625 -0.0257812 0.00966797 0.0225586 0.0386719 0.0225586 0.00966797 -0.0418945 -0.0644531 -0.0805664 -0.0580078 -0.0257812 0.00966797 0.0225586 0.0451172 0.00966797 -0.00322266 -0.0418945 -0.0644531 -0.0676758 -0.0515625 -0.0257812 0.00322266 0.0225586 0.0386719 0.0225586 -0.00644531 -0.0257812 -0.0515625 -0.0644531 0 -0.0225586 0.00966797 0.0386719 0.0290039 0.0225586 -0.00322266 -0.0257812 -0.0515625 -0.0580078 -0.0515625 -0.0322266 0 0.0386719 0.0290039 0.0193359 0 -0.0257812 -0.0515625 -0.0644531 -0.0515625 -0.0257812 0.00966797 0.0225586 0.0386719 0.0225586 0.00966797 -0.0418945 -0.0644531 -0.0805664 -0.0580078 -0.0257812 0.00966797 0.0225586 0.0451172 0.00966797 -0.00322266 -0.0418945 -0.0644531 -0.0676758 -0.0515625 -0.0257812 0.00322266 0.0225586 0.0386719 0.0225586 -0.00644531 -0.0257812 -0.0515625 -0.0644531 -0.0515625 -0.0257812 0 0.0290039 0.0290039 0.0225586 -0.00322266 -0.0257812 -0.0644531 -0.0805664 -0.0580078 -0.0257812 0.00966797 0.0225586 0.0483398 0.0225586 -0.00322266 -0.0322266 -0.0644531 -0.0644531 -0.0580078 -0.0257812 0 0.0225586 0.0290039 0.0193359 -0.00644531 -0.0257812 -0.0580078 -0.0741211 -0.0515625 -0.0225586 0.00966797 0.0483398 0.0386719 0.0386719 0 -0.0418945 -0.0644531 -0.0805664 -0.0644531 -0.0257812 0.00322266 0.0225586 0.0451172 0.0290039 -0.0257812 -0.0515625 -0.0805664 -0.0805664 0 -0.0257812 0 0.0290039 0.0290039 0.0225586 -0.00322266 -0.0257812 -0.0644531 -0.0805664 -0.0580078 -0.0257812 0.00966797 0.0225586 0.0483398 0.0225586 -0.00322266 -0.0322266 -0.0644531 -0.0644531 -0.0580078 -0.0257812 0 0.0225586 0.0290039 0.0193359 -0.00644531 -0.0257812 -0.0580078 -0.0741211 -0.0515625 -0.0225586 0.00966797 0.0483398 0.0386719 0.0386719 0 -0.0418945 -0.0644531 -0.0805664 -0.0644531 -0.0257812 0.00322266 0.0225586 0.0451172 0.0290039 -0.0257812 -0.0515625 -0.0805664 -0.0805664 -0.0580078 -0.0580078 0.00322266 0.0483398 0.125684 0.154687 0.154687 0.0999023 -0.0128906 -0.103125 -0.20625 -0.238477 -0.0418945 0.0483398 -0.0257812 0.309375 0.251367 -0.232031 -0.402832 -0.55752 -0.512402 -0.25459 0.0225586 -0.248145 0.0193359 -0.00322266 0.125684 0.309375 -0.541406 0.0354492 -0.36416 -0.0515625 -0.883008 -0.0515625 0.554297 0.950684 0.950684 1.28584 1.27617 0.512402 -0.15791 -0.0805664 -0.125684 -0.20625 -0.219141 0.0225586 0.125684 -0.409277 -0.373828 -0.444727 0 -0.0580078 0.00322266 0.0483398 0.125684 0.154687 0.154687 0.0999023 -0.0128906 -0.103125 -0.20625 -0.238477 -0.0418945 0.0483398 -0.0257812 0.309375 0.251367 -0.232031 -0.402832 -0.55752 -0.512402 -0.25459 0.0225586 -0.248145 0.0193359 -0.00322266 0.125684 0.309375 -0.541406 0.0354492 -0.36416 -0.0515625 -0.883008 -0.0515625 0.554297 0.950684 0.950684 1.28584 1.27617 0.512402 -0.15791 -0.0805664 -0.125684 -0.20625 -0.219141 0.0225586 0.125684 -0.409277 -0.373828 -0.444727 -0.409277 -0.0257812 -0.232031 0.199805 -0.76377 -0.747656 -0.905566 -0.747656 -0.438281 0.0999023 0.592969 0.399609 -0.0418945 -0.257812 -0.093457 0.0999023 0.154687 0.0966797 -0.161133 0 0.25459 0.0966797 0.154687 0.203027 0.15791 0.0999023 0 -0.103125 -0.0644531 0.0483398 0.0612305 0.00966797 0.0193359 -0.0257812 -0.128906 -0.116016 -0.103125 -0.167578 -0.0999023 -0.0257812 -0.0418945 -0.128906 0.0902344 0.154687 0.0483398 0.0386719 0 -0.00322266 0.0773437 0.0902344 0 -0.0257812 -0.232031 0.199805 -0.76377 -0.747656 -0.905566 -0.747656 -0.438281 0.0999023 0.592969 0.399609 -0.0418945 -0.257812 -0.093457 0.0999023 0.154687 0.0966797 -0.161133 0 0.25459 0.0966797 0.154687 0.203027 0.15791 0.0999023 0 -0.103125 -0.0644531 0.0483398 0.0612305 0.00966797 0.0193359 -0.0257812 -0.128906 -0.116016 -0.103125 -0.167578 -0.0999023 -0.0257812 -0.0418945 -0.128906 0.0902344 0.154687 0.0483398 0.0386719 0 -0.00322266 0.0773437 0.0902344 0.164355 0.112793 0.0612305 0.0612305 -0.0837891 -0.257812 -0.14502 -0.0257812 0.00966797 0.0773437 0.180469 0.251367 0.193359 0.112793 0.0483398 0.0612305 -0.0257812 -0.0128906 -0.128906 -0.14502 -0.093457 -0.116016 -0.10957 -0.10957 -0.103125 -0.093457 -0.093457 -0.0999023 -0.10957 -0.128906 -0.0805664 -0.0515625 -0.0257812 0.00322266 0.0451172 0.0773437 0.0805664 0.0483398 0.0225586 0.0386719 -0.0418945 -0.0257812 -0.0418945 -0.0483398 -0.0257812 -0.0128906 -0.0257812 -0.0547852 -0.0805664 -0.0644531 0 0.112793 0.0612305 0.0612305 -0.0837891 -0.257812 -0.14502 -0.0257812 0.00966797 0.0773437 0.180469 0.251367 0.193359 0.112793 0.0483398 0.0612305 -0.0257812 -0.0128906 -0.128906 -0.14502 -0.093457 -0.116016 -0.10957 -0.10957 -0.103125 -0.093457 -0.093457 -0.0999023 -0.10957 -0.128906 -0.0805664 -0.0515625 -0.0257812 0.00322266 0.0451172 0.0773437 0.0805664 0.0483398 0.0225586 0.0386719 -0.0418945 -0.0257812 -0.0418945 -0.0483398 -0.0257812 -0.0128906 -0.0257812 -0.0547852 -0.0805664 -0.0644531 -0.0418945 -0.0515625 -0.0418945 -0.0128906 -0.00322266 0.00966797 -0.0128906 -0.0257812 -0.0515625 -0.0580078 -0.0515625 -0.0418945 -0.0128906 -0.00644531 0.0193359 -0.00644531 -0.0225586 -0.0483398 -0.0805664 -0.0805664 -0.0805664 -0.0418945 -0.0128906 0.00322266 0.0225586 0.00966797 -0.0257812 -0.0515625 -0.0644531 -0.0644531 -0.0418945 -0.00644531 0 0.0225586 0.0225586 0.0225586 -0.00322266 -0.0322266 -0.0580078 -0.0644531 -0.0515625 -0.0257812 0 0.0386719 0.0193359 0.0451172 0.00322266 -0.0418945 -0.0805664 -0.0515625 0 -0.0515625 -0.0418945 -0.0128906 -0.00322266 0.00966797 -0.0128906 -0.0257812 -0.0515625 -0.0580078 -0.0515625 -0.0418945 -0.0128906 -0.00644531 0.0193359 -0.00644531 -0.0225586 -0.0483398 -0.0805664 -0.0805664 -0.0805664 -0.0418945 -0.0128906 0.00322266 0.0225586 0.00966797 -0.0257812 -0.0515625 -0.0644531 -0.0644531 -0.0418945 -0.00644531 0 0.0225586 0.0225586 0.0225586 -0.00322266 -0.0322266 -0.0580078 -0.0644531 -0.0515625 -0.0257812 0 0.0386719 0.0193359 0.0451172 0.00322266 -0.0418945 -0.0805664 -0.0515625 -0.0322266 -0.0257812 0.0225586 0.0483398 0.0483398 0.0451172 0.00966797 -0.0257812 -0.0515625 -0.0644531 -0.0418945 -0.00644531 0.00966797 0.0386719 0.0483398 0.0225586 0.00966797 -0.0257812 -0.0515625 -0.0580078 -0.0515625 -0.0257812 0.00322266 0.0483398 0.0547852 0.0483398 0.00966797 -0.0128906 -0.0257812 -0.0322266 -0.0418945 0.0225586 0.0386719 0.0547852 0.0612305 0.0483398 0.0225586 -0.00322266 -0.0257812 -0.0257812 -0.0257812 -0.0128906 0.00322266 0.00966797 0.0386719 0.0225586 -0.0128906 -0.0418945 -0.0515625 -0.0580078 0 -0.0257812 0.0225586 0.0483398 0.0483398 0.0451172 0.00966797 -0.0257812 -0.0515625 -0.0644531 -0.0418945 -0.00644531 0.00966797 0.0386719 0.0483398 0.0225586 0.00966797 -0.0257812 -0.0515625 -0.0580078 -0.0515625 -0.0257812 0.00322266 0.0483398 0.0547852 0.0483398 0.00966797 -0.0128906 -0.0257812 -0.0322266 -0.0418945 0.0225586 0.0386719 0.0547852 0.0612305 0.0483398 0.0225586 -0.00322266 -0.0257812 -0.0257812 -0.0257812 -0.0128906 0.00322266 0.00966797 0.0386719 0.0225586 -0.0128906 -0.0418945 -0.0515625 -0.0580078 -0.0515625 -0.0257812 -0.00322266 0.0225586 0.0290039 0.00322266 -0.0128906 -0.0225586 -0.0483398 -0.0483398 -0.0257812 -0.0128906 0.00966797 0.0290039 0.0386719 0.0225586 0.00322266 -0.0257812 -0.0483398 -0.0515625 -0.0483398 -0.0257812 0 0.00966797 0.0193359 0.0193359 -0.0418945 -0.0515625 -0.0547852 -0.0580078 -0.0515625 -0.0257812 -0.00644531 -0.00644531 0.00966797 -0.00322266 -0.0257812 -0.0515625 -0.0644531 -0.0483398 -0.0257812 -0.0225586 0 0.00966797 0.0225586 0.0225586 0 -0.0257812 -0.0515625 -0.0515625 0 -0.0257812 -0.00322266 0.0225586 0.0290039 0.00322266 -0.0128906 -0.0225586 -0.0483398 -0.0483398 -0.0257812 -0.0128906 0.00966797 0.0290039 0.0386719 0.0225586 0.00322266 -0.0257812 -0.0483398 -0.0515625 -0.0483398 -0.0257812 0 0.00966797 0.0193359 0.0193359 -0.0418945 -0.0515625 -0.0547852 -0.0580078 -0.0515625 -0.0257812 -0.00644531 -0.00644531 0.00966797 -0.00322266 -0.0257812 -0.0515625 -0.0644531 -0.0483398 -0.0257812 -0.0225586 0 0.00966797 0.0225586 0.0225586 0 -0.0257812 -0.0515625 -0.0515625 -0.0418945 -0.0257812 0.00966797 0.0386719 0.0225586 0.0225586 -0.00644531 -0.0418945 -0.0515625 -0.0515625 -0.0483398 -0.0257812 -0.00322266 0.00966797 0.0225586 0.00966797 0 -0.0257812 -0.0515625 -0.0515625 -0.0418945 -0.0225586 0.0193359 0.0193359 0.00322266 0.0193359 -0.00644531 -0.0257812 -0.0515625 -0.0644531 -0.0483398 -0.0257812 -0.00322266 0.0128906 0.0386719 0.0225586 -0.00322266 -0.0515625 -0.0418945 -0.0515625 -0.0515625 -0.0418945 0.00966797 -0.00322266 -0.00322266 0 0.0193359 -0.00322266 -0.0257812 -0.0257812 0 -0.0257812 0.00966797 0.0386719 0.0225586 0.0225586 -0.00644531 -0.0418945 -0.0515625 -0.0515625 -0.0483398 -0.0257812 -0.00322266 0.00966797 0.0225586 0.00966797 0 -0.0257812 -0.0515625 -0.0515625 -0.0418945 -0.0225586 0.0193359 0.0193359 0.00322266 0.0193359 -0.00644531 -0.0257812 -0.0515625 -0.0644531 -0.0483398 -0.0257812 -0.00322266 0.0128906 0.0386719 0.0225586 -0.00322266 -0.0515625 -0.0418945 -0.0515625 -0.0515625 -0.0418945 0.00966797 -0.00322266 -0.00322266 0 0.0193359 -0.00322266 -0.0257812 -0.0257812 -0.0225586 -0.0257812 0.0193359 0.0225586 0.0225586 0.0386719 0.0193359 -0.0257812 -0.0418945 -0.0515625 -0.0418945 -0.00644531 0 0.0290039 0.0225586 0.00322266 -0.00644531 -0.0257812 -0.0515625 -0.0805664 -0.0644531 -0.0418945 -0.00322266 0.00966797 0.0225586 0.0193359 -0.00322266 -0.0257812 -0.0644531 -0.0805664 -0.0515625 -0.0257812 -0.00644531 0 0.00966797 0.00966797 0.00322266 -0.0257812 -0.0644531 -0.0644531 -0.0515625 -0.0322266 -0.00322266 0.0225586 0.0225586 0.00966797 0.00966797 -0.0257812 -0.0483398 -0.0515625 0 -0.0257812 0.0193359 0.0225586 0.0225586 0.0386719 0.0193359 -0.0257812 -0.0418945 -0.0515625 -0.0418945 -0.00644531 0 0.0290039 0.0225586 0.00322266 -0.00644531 -0.0257812 -0.0515625 -0.0805664 -0.0644531 -0.0418945 -0.00322266 0.00966797 0.0225586 0.0193359 -0.00322266 -0.0257812 -0.0644531 -0.0805664 -0.0515625 -0.0257812 -0.00644531 0 0.00966797 0.00966797 0.00322266 -0.0257812 -0.0644531 -0.0644531 -0.0515625 -0.0322266 -0.00322266 0.0225586 0.0225586 0.00966797 0.00966797 -0.0257812 -0.0483398 -0.0515625 -0.0515625 -0.0257812 -0.0128906 0.00966797 0.00322266 0.0225586 -0.00322266 -0.0257812 -0.0418945 -0.0128906 -0.0418945 -0.0515625 -0.0483398 -0.0257812 -0.0128906 -0.00644531 0.0225586 -0.00644531 -0.0128906 -0.0257812 -0.0257812 -0.0257812 -0.0257812 -0.0128906 -0.0128906 0.00966797 0 0.00322266 -0.0128906 -0.0128906 -0.0257812 -0.0386719 -0.0128906 -0.00644531 0 0 0 0 -0.00322266 -0.0128906 -0.00644531 -0.0225586 -0.0257812 -0.0128906 -0.00322266 0 0 0 -0.00644531 -0.0257812 0 -0.0257812 -0.0128906 0.00966797 0.00322266 0.0225586 -0.00322266 -0.0257812 -0.0418945 -0.0128906 -0.0418945 -0.0515625 -0.0483398 -0.0257812 -0.0128906 -0.00644531 0.0225586 -0.00644531 -0.0128906 -0.0257812 -0.0257812 -0.0257812 -0.0257812 -0.0128906 -0.0128906 0.00966797 0 0.00322266 -0.0128906 -0.0128906 -0.0257812 -0.0386719 -0.0128906 -0.00644531 0 0 0 0 -0.00322266 -0.0128906 -0.00644531 -0.0225586 -0.0257812 -0.0128906 -0.00322266 0 0 0 -0.00644531 -0.0257812 -0.0257812 -0.0225586 0.00966797 0.0225586 0.0386719 0.0225586 0 -0.0257812 -0.0483398 -0.0418945 -0.0418945 -0.0483398 -0.00322266 0.0225586 0.0386719 0.0225586 0 -0.0418945 -0.0515625 -0.0515625 -0.0515625 -0.0257812 0 0.00966797 0.0225586 0.0225586 0.00322266 -0.0225586 -0.0483398 -0.0580078 -0.0515625 -0.0257812 0.00966797 0.0225586 0.0386719 0.00966797 -0.00322266 -0.0257812 -0.0515625 -0.0741211 -0.0515625 -0.0257812 -0.00644531 0.00966797 0.0225586 0.00322266 -0.0128906 -0.0257812 -0.0257812 -0.0322266 0 -0.0225586 0.00966797 0.0225586 0.0386719 0.0225586 0 -0.0257812 -0.0483398 -0.0418945 -0.0418945 -0.0483398 -0.00322266 0.0225586 0.0386719 0.0225586 0 -0.0418945 -0.0515625 -0.0515625 -0.0515625 -0.0257812 0 0.00966797 0.0225586 0.0225586 0.00322266 -0.0225586 -0.0483398 -0.0580078 -0.0515625 -0.0257812 0.00966797 0.0225586 0.0386719 0.00966797 -0.00322266 -0.0257812 -0.0515625 -0.0741211 -0.0515625 -0.0257812 -0.00644531 0.00966797 0.0225586 0.00322266 -0.0128906 -0.0257812 -0.0257812 -0.0322266 -0.0418945 -0.0418945 -0.0257812 0 0.00966797 -0.0128906 -0.0128906 -0.0257812 -0.00644531 -0.0128906 -0.0128906 -0.0257812 -0.0257812 0.00966797 0.00966797 0.00966797 0 -0.0257812 -0.0483398 -0.0515625 -0.0515625 -0.0257812 0 0.0225586 0.0225586 0.00966797 0 -0.0257812 -0.0483398 -0.0515625 -0.0515625 -0.0257812 0.00322266 0.0225586 0.0225586 0.0225586 0.00322266 -0.0257812 -0.0644531 -0.0580078 -0.0515625 -0.0257812 0 0.0193359 0.0193359 0.00966797 0 -0.0225586 -0.0418945 -0.0547852 0 -0.0418945 -0.0257812 0 0.00966797 -0.0128906 -0.0128906 -0.0257812 -0.00644531 -0.0128906 -0.0128906 -0.0257812 -0.0257812 0.00966797 0.00966797 0.00966797 0 -0.0257812 -0.0483398 -0.0515625 -0.0515625 -0.0257812 0 0.0225586 0.0225586 0.00966797 0 -0.0257812 -0.0483398 -0.0515625 -0.0515625 -0.0257812 0.00322266 0.0225586 0.0225586 0.0225586 0.00322266 -0.0257812 -0.0644531 -0.0580078 -0.0515625 -0.0257812 0 0.0193359 0.0193359 0.00966797 0 -0.0225586 -0.0418945 -0.0547852 -0.0418945 -0.0128906 0.00322266 0.0225586 0.0225586 0.00966797 0 -0.0128906 -0.0257812 -0.0418945 -0.0644531 -0.0257812 -0.00322266 0.0225586 0.0386719 0.0225586 0.00322266 -0.0322266 -0.0483398 -0.0418945 -0.0257812 -0.0257812 0 0.0225586 0.0225586 0.0225586 0 -0.0225586 -0.0515625 -0.0515625 -0.0515625 -0.0322266 0.00322266 0.0225586 0.0225586 0.00966797 -0.00322266 -0.0257812 -0.0418945 -0.0515625 -0.0418945 -0.0257812 -0.00322266 0.00966797 0.0225586 0 -0.00644531 -0.0257812 -0.0580078 -0.0515625 0 -0.0128906 0.00322266 0.0225586 0.0225586 0.00966797 0 -0.0128906 -0.0257812 -0.0418945 -0.0644531 -0.0257812 -0.00322266 0.0225586 0.0386719 0.0225586 0.00322266 -0.0322266 -0.0483398 -0.0418945 -0.0257812 -0.0257812 0 0.0225586 0.0225586 0.0225586 0 -0.0225586 -0.0515625 -0.0515625 -0.0515625 -0.0322266 0.00322266 0.0225586 0.0225586 0.00966797 -0.00322266 -0.0257812 -0.0418945 -0.0515625 -0.0418945 -0.0257812 -0.00322266 0.00966797 0.0225586 0 -0.00644531 -0.0257812 -0.0580078 -0.0515625 -0.0515625 -0.0418945 -0.0225586 0.00966797 0.0225586 0.0225586 0.00966797 -0.0322266 -0.0515625 -0.0644531 -0.0515625 -0.0257812 0.00322266 0.0193359 0.0225586 0.0225586 -0.00322266 -0.0322266 -0.0515625 -0.0515625 -0.0515625 -0.0257812 0 0.00322266 0.0290039 0.0225586 0.00322266 -0.0128906 -0.0515625 -0.0580078 -0.0483398 -0.0257812 0 0.0225586 0.0193359 0.00322266 -0.00322266 -0.0128906 -0.0257812 -0.0515625 -0.0418945 -0.0418945 -0.0128906 0.00322266 0.0193359 0.0225586 -0.00322266 -0.0128906 -0.0418945 -0.0515625 0 -0.0418945 -0.0225586 0.00966797 0.0225586 0.0225586 0.00966797 -0.0322266 -0.0515625 -0.0644531 -0.0515625 -0.0257812 0.00322266 0.0193359 0.0225586 0.0225586 -0.00322266 -0.0322266 -0.0515625 -0.0515625 -0.0515625 -0.0257812 0 0.00322266 0.0290039 0.0225586 0.00322266 -0.0128906 -0.0515625 -0.0580078 -0.0483398 -0.0257812 0 0.0225586 0.0193359 0.00322266 -0.00322266 -0.0128906 -0.0257812 -0.0515625 -0.0418945 -0.0418945 -0.0128906 0.00322266 0.0193359 0.0225586 -0.00322266 -0.0128906 -0.0418945 -0.0515625 -0.0483398 -0.0257812 -0.00322266 0.0225586 0.0225586 0.00966797 0.00322266 -0.0257812 -0.0515625 -0.0515625 -0.0547852 -0.0257812 -0.00644531 0.00966797 0.0225586 0.00966797 -0.00644531 -0.0128906 -0.0515625 -0.0515625 -0.0418945 -0.0418945 -0.00322266 0.00966797 0.0290039 0.0225586 0.00966797 -0.0257812 -0.0418945 -0.0580078 -0.0580078 -0.0418945 -0.00322266 0.0225586 0.0225586 0.00966797 -0.00322266 -0.0257812 -0.0515625 -0.0644531 -0.0418945 -0.0257812 -0.0128906 0.00966797 0.0225586 0.0225586 0.00322266 -0.0128906 -0.0515625 -0.0644531 0 -0.0257812 -0.00322266 0.0225586 0.0225586 0.00966797 0.00322266 -0.0257812 -0.0515625 -0.0515625 -0.0547852 -0.0257812 -0.00644531 0.00966797 0.0225586 0.00966797 -0.00644531 -0.0128906 -0.0515625 -0.0515625 -0.0418945 -0.0418945 -0.00322266 0.00966797 0.0290039 0.0225586 0.00966797 -0.0257812 -0.0418945 -0.0580078 -0.0580078 -0.0418945 -0.00322266 0.0225586 0.0225586 0.00966797 -0.00322266 -0.0257812 -0.0515625 -0.0644531 -0.0418945 -0.0257812 -0.0128906 0.00966797 0.0225586 0.0225586 0.00322266 -0.0128906 -0.0515625 -0.0644531 -0.0515625 -0.0257812 0 0.0225586 0.0225586 0.00966797 0.00322266 -0.00644531 -0.0418945 -0.0515625 -0.0515625 -0.0418945 -0.00644531 0.0225586 0.0225586 0.00322266 -0.00644531 -0.0128906 -0.0418945 -0.0547852 -0.0418945 -0.0257812 -0.0128906 0.00966797 0.0225586 0.0193359 -0.00322266 -0.0128906 -0.0418945 -0.0515625 -0.0418945 -0.0257812 0 0.00966797 0.0225586 0.00966797 -0.00322266 -0.0257812 -0.0515625 -0.0580078 -0.0483398 -0.0322266 -0.0128906 0.00966797 0.0386719 0.0290039 0 -0.0257812 -0.0515625 -0.0515625 0 -0.0257812 0 0.0225586 0.0225586 0.00966797 0.00322266 -0.00644531 -0.0418945 -0.0515625 -0.0515625 -0.0418945 -0.00644531 0.0225586 0.0225586 0.00322266 -0.00644531 -0.0128906 -0.0418945 -0.0547852 -0.0418945 -0.0257812 -0.0128906 0.00966797 0.0225586 0.0193359 -0.00322266 -0.0128906 -0.0418945 -0.0515625 -0.0418945 -0.0257812 0 0.00966797 0.0225586 0.00966797 -0.00322266 -0.0257812 -0.0515625 -0.0580078 -0.0483398 -0.0322266 -0.0128906 0.00966797 0.0386719 0.0290039 0 -0.0257812 -0.0515625 -0.0515625 -0.0418945 -0.0257812 -0.0128906 0 0.0225586 0.0225586 0.00966797 -0.0418945 -0.0515625 -0.0483398 -0.0418945 -0.0257812 -0.00644531 0.0193359 0.0225586 0.00966797 0.00322266 -0.0225586 -0.0418945 -0.0515625 -0.0515625 -0.0257812 -0.0128906 0.0193359 0.0193359 0.00966797 0 -0.0128906 -0.0418945 -0.0483398 -0.0418945 -0.0322266 -0.00644531 0.0225586 0.0225586 0.00966797 -0.00322266 -0.0128906 -0.0418945 -0.0515625 -0.0515625 -0.0418945 -0.00322266 0.00966797 0.0193359 0.00322266 -0.00322266 -0.0128906 -0.0418945 -0.0515625 0 -0.0257812 -0.0128906 0 0.0225586 0.0225586 0.00966797 -0.0418945 -0.0515625 -0.0483398 -0.0418945 -0.0257812 -0.00644531 0.0193359 0.0225586 0.00966797 0.00322266 -0.0225586 -0.0418945 -0.0515625 -0.0515625 -0.0257812 -0.0128906 0.0193359 0.0193359 0.00966797 0 -0.0128906 -0.0418945 -0.0483398 -0.0418945 -0.0322266 -0.00644531 0.0225586 0.0225586 0.00966797 -0.00322266 -0.0128906 -0.0418945 -0.0515625 -0.0515625 -0.0418945 -0.00322266 0.00966797 0.0193359 0.00322266 -0.00322266 -0.0128906 -0.0418945 -0.0515625 -0.0418945 -0.0322266 -0.00644531 0.00966797 0.0290039 0.0193359 0.00322266 -0.0257812 -0.0580078 -0.0644531 -0.0483398 -0.0128906 0 0.0193359 0.0225586 0.00966797 0.00322266 -0.0225586 -0.0418945 -0.0515625 -0.0515625 -0.0418945 -0.00322266 0.0225586 0.0225586 0.00322266 -0.00644531 -0.0128906 -0.0515625 -0.0515625 -0.0515625 -0.0128906 0.0225586 0.0483398 0.0225586 0.00966797 0.00322266 0 -0.0128906 -0.0515625 -0.0257812 -0.0418945 0.0612305 0.0483398 0.0612305 0.0225586 -0.0515625 0.125684 0.457617 0.0999023 0 -0.0322266 -0.00644531 0.00966797 0.0290039 0.0193359 0.00322266 -0.0257812 -0.0580078 -0.0644531 -0.0483398 -0.0128906 0 0.0193359 0.0225586 0.00966797 0.00322266 -0.0225586 -0.0418945 -0.0515625 -0.0515625 -0.0418945 -0.00322266 0.0225586 0.0225586 0.00322266 -0.00644531 -0.0128906 -0.0515625 -0.0515625 -0.0515625 -0.0128906 0.0225586 0.0483398 0.0225586 0.00966797 0.00322266 0 -0.0128906 -0.0515625 -0.0257812 -0.0418945 0.0612305 0.0483398 0.0612305 0.0225586 -0.0515625 0.125684 0.457617 0.0999023 0.00322266 -0.299707 -0.438281 -0.20625 -0.438281 -0.444727 -0.0644531 -0.4125 -0.0418945 -0.402832 -0.0128906 -0.621973 -0.135352 0.721875 1.09248 0.879785 0.567187 0.489844 -1.22783 -0.493066 -0.15791 0.228809 0.57041 0.689648 0.512402 0.26748 0.0290039 -0.128906 -0.128906 -0.183691 -0.20625 -0.103125 -0.0515625 0.0193359 -0.286816 -0.196582 -0.161133 -0.0515625 -0.15791 -0.57041 -0.464062 -0.15791 0.0225586 0.0612305 0.331934 -0.232031 -0.219141 -0.802441 0.0612305 -0.103125 0 -0.299707 -0.438281 -0.20625 -0.438281 -0.444727 -0.0644531 -0.4125 -0.0418945 -0.402832 -0.0128906 -0.621973 -0.135352 0.721875 1.09248 0.879785 0.567187 0.489844 -1.22783 -0.493066 -0.15791 0.228809 0.57041 0.689648 0.512402 0.26748 0.0290039 -0.128906 -0.128906 -0.183691 -0.20625 -0.103125 -0.0515625 0.0193359 -0.286816 -0.196582 -0.161133 -0.0515625 -0.15791 -0.57041 -0.464062 -0.15791 0.0225586 0.0612305 0.331934 -0.232031 -0.219141 -0.802441 0.0612305 -0.103125 -0.57041 -0.0418945 0.512402 0.725098 -0.0225586 -0.196582 -0.167578 0.0999023 0.296484 0.399609 0.744434 0.592969 0.15791 -0.0515625 -0.0128906 -0.425391 -0.0999023 0.141797 0.0483398 -0.125684 -0.0644531 -0.183691 -0.196582 -0.167578 -0.093457 0.00966797 0.0773437 0.0386719 0.00322266 0.180469 -0.135352 -0.454395 0 0.0193359 0.228809 0.199805 -0.093457 -0.454395 0 -0.161133 0.141797 0.296484 0.567187 0.576855 0.592969 0.180469 0.0999023 -0.128906 -0.312598 -0.36416 0 -0.0418945 0.512402 0.725098 -0.0225586 -0.196582 -0.167578 0.0999023 0.296484 0.399609 0.744434 0.592969 0.15791 -0.0515625 -0.0128906 -0.425391 -0.0999023 0.141797 0.0483398 -0.125684 -0.0644531 -0.183691 -0.196582 -0.167578 -0.093457 0.00966797 0.0773437 0.0386719 0.00322266 0.180469 -0.135352 -0.454395 0 0.0193359 0.228809 0.199805 -0.093457 -0.454395 0 -0.161133 0.141797 0.296484 0.567187 0.576855 0.592969 0.180469 0.0999023 -0.128906 -0.312598 -0.36416 -0.232031 -0.36416 -0.31582 -0.232031 -0.232031 -0.0805664 -0.0999023 -0.103125 -0.103125 -0.0805664 -0.0805664 -0.0515625 -0.0805664 0.0386719 0.0483398 0.0225586 0 0.00322266 -0.0386719 -0.0257812 -0.00644531 0.00966797 0.0225586 0.0451172 0.0290039 0.0193359 0.00966797 -0.0322266 -0.0644531 -0.116016 -0.0805664 -0.0257812 0 0.0451172 0.0999023 0.0612305 0.00322266 -0.0805664 -0.093457 -0.103125 -0.0805664 -0.0741211 -0.0257812 0.0225586 0.0225586 -0.0257812 -0.093457 -0.093457 -0.0999023 -0.0837891 0 -0.36416 -0.31582 -0.232031 -0.232031 -0.0805664 -0.0999023 -0.103125 -0.103125 -0.0805664 -0.0805664 -0.0515625 -0.0805664 0.0386719 0.0483398 0.0225586 0 0.00322266 -0.0386719 -0.0257812 -0.00644531 0.00966797 0.0225586 0.0451172 0.0290039 0.0193359 0.00966797 -0.0322266 -0.0644531 -0.116016 -0.0805664 -0.0257812 0 0.0451172 0.0999023 0.0612305 0.00322266 -0.0805664 -0.093457 -0.103125 -0.0805664 -0.0741211 -0.0257812 0.0225586 0.0225586 -0.0257812 -0.093457 -0.093457 -0.0999023 -0.0837891 -0.0805664 -0.0805664 -0.0515625 0 0.00966797 -0.0322266 -0.0547852 -0.0322266 -0.0515625 -0.0741211 -0.0580078 -0.0515625 0.00322266 0.0225586 0.0483398 0.0225586 -0.0128906 -0.0644531 -0.093457 -0.125684 -0.116016 -0.0515625 -0.0257812 -0.00322266 -0.0128906 -0.0225586 -0.0128906 -0.0515625 -0.0483398 -0.0418945 -0.0128906 0.00322266 0.0225586 0.0612305 0.0773437 0.0773437 0.0773437 0.0773437 0.0773437 0.0612305 0.0483398 0.0483398 0.0612305 0.0612305 0.0547852 0.0386719 0.0225586 -0.0225586 -0.0515625 -0.0418945 0 -0.0805664 -0.0515625 0 0.00966797 -0.0322266 -0.0547852 -0.0322266 -0.0515625 -0.0741211 -0.0580078 -0.0515625 0.00322266 0.0225586 0.0483398 0.0225586 -0.0128906 -0.0644531 -0.093457 -0.125684 -0.116016 -0.0515625 -0.0257812 -0.00322266 -0.0128906 -0.0225586 -0.0128906 -0.0515625 -0.0483398 -0.0418945 -0.0128906 0.00322266 0.0225586 0.0612305 0.0773437 0.0773437 0.0773437 0.0773437 0.0773437 0.0612305 0.0483398 0.0483398 0.0612305 0.0612305 0.0547852 0.0386719 0.0225586 -0.0225586 -0.0515625 -0.0418945 -0.0418945 -0.0257812 -0.00322266 0.0225586 0.0225586 0.0290039 0.00322266 -0.0128906 -0.0322266 -0.0418945 -0.0483398 -0.0257812 -0.0128906 -0.0128906 -0.0257812 -0.0128906 -0.0128906 -0.0257812 -0.0580078 -0.0741211 -0.0644531 -0.0515625 -0.0257812 0 0.00322266 -0.00644531 -0.0257812 -0.0515625 -0.0580078 -0.093457 -0.0644531 -0.0418945 -0.0257812 0.00322266 0.0225586 0.0193359 0 -0.0257812 -0.0515625 -0.0644531 -0.0644531 -0.0515625 -0.0128906 0.00966797 0.0386719 0.0225586 0.00322266 -0.0418945 -0.0805664 -0.0805664 0 -0.0257812 -0.00322266 0.0225586 0.0225586 0.0290039 0.00322266 -0.0128906 -0.0322266 -0.0418945 -0.0483398 -0.0257812 -0.0128906 -0.0128906 -0.0257812 -0.0128906 -0.0128906 -0.0257812 -0.0580078 -0.0741211 -0.0644531 -0.0515625 -0.0257812 0 0.00322266 -0.00644531 -0.0257812 -0.0515625 -0.0580078 -0.093457 -0.0644531 -0.0418945 -0.0257812 0.00322266 0.0225586 0.0193359 0 -0.0257812 -0.0515625 -0.0644531 -0.0644531 -0.0515625 -0.0128906 0.00966797 0.0386719 0.0225586 0.00322266 -0.0418945 -0.0805664 -0.0805664 -0.0580078 -0.0386719 0 0.0225586 0.00966797 0.00966797 -0.0225586 -0.0257812 -0.0805664 -0.093457 -0.0805664 -0.0515625 -0.0128906 0.00966797 0.0225586 0.00966797 -0.00322266 -0.0257812 -0.0483398 -0.0515625 -0.0644531 -0.0418945 -0.0225586 0.0193359 0.0225586 0.0225586 0 -0.0128906 -0.0515625 -0.0515625 -0.0225586 0 0.00322266 0.0225586 0.0290039 0.0225586 0 -0.0128906 -0.0515625 -0.0515625 -0.0483398 -0.0322266 0 0.0225586 0.0386719 0.0225586 0 -0.0128906 -0.0483398 -0.0515625 0 -0.0386719 0 0.0225586 0.00966797 0.00966797 -0.0225586 -0.0257812 -0.0805664 -0.093457 -0.0805664 -0.0515625 -0.0128906 0.00966797 0.0225586 0.00966797 -0.00322266 -0.0257812 -0.0483398 -0.0515625 -0.0644531 -0.0418945 -0.0225586 0.0193359 0.0225586 0.0225586 0 -0.0128906 -0.0515625 -0.0515625 -0.0225586 0 0.00322266 0.0225586 0.0290039 0.0225586 0 -0.0128906 -0.0515625 -0.0515625 -0.0483398 -0.0322266 0 0.0225586 0.0386719 0.0225586 0 -0.0128906 -0.0483398 -0.0515625 -0.0418945 -0.0225586 0.00322266 0 0.0290039 0.0290039 -0.0128906 -0.0225586 -0.0418945 -0.0418945 -0.0418945 -0.0257812 -0.00322266 0.00966797 0.0225586 0.0225586 0.00966797 -0.0225586 -0.0418945 -0.0515625 -0.0483398 -0.0257812 -0.00322266 0.00966797 0.0225586 0.0225586 0.00322266 -0.0225586 -0.0483398 -0.0515625 -0.0483398 -0.0257812 -0.00644531 0.0225586 0.0386719 0.00322266 0.00966797 -0.0128906 -0.0322266 -0.0515625 -0.0515625 -0.0257812 0 0.0225586 0.0225586 0.0386719 0.0225586 -0.0257812 -0.0644531 -0.0805664 0 -0.0225586 0.00322266 0 0.0290039 0.0290039 -0.0128906 -0.0225586 -0.0418945 -0.0418945 -0.0418945 -0.0257812 -0.00322266 0.00966797 0.0225586 0.0225586 0.00966797 -0.0225586 -0.0418945 -0.0515625 -0.0483398 -0.0257812 -0.00322266 0.00966797 0.0225586 0.0225586 0.00322266 -0.0225586 -0.0483398 -0.0515625 -0.0483398 -0.0257812 -0.00644531 0.0225586 0.0386719 0.00322266 0.00966797 -0.0128906 -0.0322266 -0.0515625 -0.0515625 -0.0257812 0 0.0225586 0.0225586 0.0386719 0.0225586 -0.0257812 -0.0644531 -0.0805664 -0.0644531 -0.0418945 -0.00322266 0.00966797 0.0225586 0.0225586 0 -0.0257812 -0.0515625 -0.0741211 -0.0580078 -0.0418945 -0.0225586 0.00966797 0.0225586 0.00966797 -0.00322266 -0.0257812 -0.0515625 -0.0580078 -0.0418945 -0.0257812 -0.00644531 -0.0322266 -0.00322266 0.00322266 -0.0257812 -0.0257812 -0.0580078 -0.0741211 -0.0515625 -0.0418945 -0.0257812 -0.0225586 0.0386719 0.0225586 -0.00322266 -0.0128906 -0.0418945 -0.0515625 -0.0515625 -0.0257812 -0.00322266 0.00966797 0.0225586 0.0225586 0.00322266 -0.0257812 -0.0483398 -0.0805664 0 -0.0418945 -0.00322266 0.00966797 0.0225586 0.0225586 0 -0.0257812 -0.0515625 -0.0741211 -0.0580078 -0.0418945 -0.0225586 0.00966797 0.0225586 0.00966797 -0.00322266 -0.0257812 -0.0515625 -0.0580078 -0.0418945 -0.0257812 -0.00644531 -0.0322266 -0.00322266 0.00322266 -0.0257812 -0.0257812 -0.0580078 -0.0741211 -0.0515625 -0.0418945 -0.0257812 -0.0225586 0.0386719 0.0225586 -0.00322266 -0.0128906 -0.0418945 -0.0515625 -0.0515625 -0.0257812 -0.00322266 0.00966797 0.0225586 0.0225586 0.00322266 -0.0257812 -0.0483398 -0.0805664 -0.0515625 -0.0257812 0 0.00966797 0.0225586 0 -0.00322266 -0.0257812 -0.0515625 -0.0580078 -0.0418945 -0.0322266 -0.00322266 0.0193359 0.0225586 0.00966797 0 -0.0225586 -0.0418945 -0.0515625 -0.0515625 -0.0257812 -0.00322266 0.0451172 0.0290039 0.0225586 -0.0128906 -0.0257812 -0.0515625 -0.0580078 -0.0515625 -0.0225586 0.00322266 0.0225586 0.0193359 0.00322266 0.00966797 -0.0128906 -0.0483398 -0.0418945 -0.0515625 -0.0418945 -0.00322266 0.0225586 0.0225586 0.0193359 0 -0.0128906 -0.0257812 -0.0418945 0 -0.0257812 0 0.00966797 0.0225586 0 -0.00322266 -0.0257812 -0.0515625 -0.0580078 -0.0418945 -0.0322266 -0.00322266 0.0193359 0.0225586 0.00966797 0 -0.0225586 -0.0418945 -0.0515625 -0.0515625 -0.0257812 -0.00322266 0.0451172 0.0290039 0.0225586 -0.0128906 -0.0257812 -0.0515625 -0.0580078 -0.0515625 -0.0225586 0.00322266 0.0225586 0.0193359 0.00322266 0.00966797 -0.0128906 -0.0483398 -0.0418945 -0.0515625 -0.0418945 -0.00322266 0.0225586 0.0225586 0.0193359 0 -0.0128906 -0.0257812 -0.0418945 -0.0418945 -0.0257812 -0.0225586 0.00966797 0.0225586 0.00966797 0.00322266 -0.0128906 -0.0418945 -0.0483398 -0.0483398 -0.0322266 -0.00322266 0.0225586 0.0225586 0.0225586 0 -0.0257812 -0.0418945 -0.0580078 -0.0515625 -0.0257812 -0.0128906 0.00966797 0.0225586 0.0225586 0.0193359 -0.0257812 -0.0418945 -0.0580078 -0.0515625 -0.0128906 0.00322266 0.0225586 0.00966797 -0.00322266 -0.00644531 -0.0322266 -0.0322266 -0.0515625 -0.0580078 -0.0257812 -0.00322266 0.0193359 0.0225586 0.0193359 0 -0.0257812 -0.0483398 -0.0515625 0 -0.0257812 -0.0225586 0.00966797 0.0225586 0.00966797 0.00322266 -0.0128906 -0.0418945 -0.0483398 -0.0483398 -0.0322266 -0.00322266 0.0225586 0.0225586 0.0225586 0 -0.0257812 -0.0418945 -0.0580078 -0.0515625 -0.0257812 -0.0128906 0.00966797 0.0225586 0.0225586 0.0193359 -0.0257812 -0.0418945 -0.0580078 -0.0515625 -0.0128906 0.00322266 0.0225586 0.00966797 -0.00322266 -0.00644531 -0.0322266 -0.0322266 -0.0515625 -0.0580078 -0.0257812 -0.00322266 0.0193359 0.0225586 0.0193359 0 -0.0257812 -0.0483398 -0.0515625 -0.0515625 -0.0418945 -0.0128906 0.0225586 0.0290039 0.00966797 -0.00322266 -0.0257812 -0.0515625 -0.0580078 -0.0483398 -0.0257812 -0.00644531 0.0225586 0.0290039 0.0225586 0.00966797 -0.0257812 -0.0515625 -0.0644531 -0.0515625 -0.0418945 -0.0128906 0.00966797 0.0225586 0.0225586 0.00322266 -0.0257812 -0.0418945 -0.0515625 -0.0515625 -0.0257812 -0.0257812 0 0.00966797 0.00322266 -0.00644531 -0.0257812 -0.0257812 -0.0515625 -0.0515625 -0.0257812 -0.00644531 0.0193359 0.0225586 0.00966797 0.00966797 -0.0128906 -0.0515625 -0.0580078 0 -0.0418945 -0.0128906 0.0225586 0.0290039 0.00966797 -0.00322266 -0.0257812 -0.0515625 -0.0580078 -0.0483398 -0.0257812 -0.00644531 0.0225586 0.0290039 0.0225586 0.00966797 -0.0257812 -0.0515625 -0.0644531 -0.0515625 -0.0418945 -0.0128906 0.00966797 0.0225586 0.0225586 0.00322266 -0.0257812 -0.0418945 -0.0515625 -0.0515625 -0.0257812 -0.0257812 0 0.00966797 0.00322266 -0.00644531 -0.0257812 -0.0257812 -0.0515625 -0.0515625 -0.0257812 -0.00644531 0.0193359 0.0225586 0.00966797 0.00966797 -0.0128906 -0.0515625 -0.0580078 -0.0418945 -0.0257812 -0.00644531 0.0193359 0.0225586 0.0225586 0.00322266 -0.0225586 -0.0257812 -0.0515625 -0.0418945 -0.0418945 -0.0128906 0.00966797 0.00966797 0.0193359 -0.00322266 -0.00644531 -0.0257812 -0.0483398 -0.0418945 -0.0257812 -0.0128906 0.00966797 0.00966797 0.0290039 -0.00322266 -0.0128906 -0.0418945 -0.0515625 -0.0386719 -0.0257812 -0.0257812 0.00966797 0.0225586 0.0193359 0.00966797 -0.0128906 -0.0418945 -0.0515625 -0.0418945 -0.0257812 -0.00322266 0.00322266 0.0225586 0.0225586 0.0193359 -0.0128906 -0.0515625 -0.0547852 0 -0.0257812 -0.00644531 0.0193359 0.0225586 0.0225586 0.00322266 -0.0225586 -0.0257812 -0.0515625 -0.0418945 -0.0418945 -0.0128906 0.00966797 0.00966797 0.0193359 -0.00322266 -0.00644531 -0.0257812 -0.0483398 -0.0418945 -0.0257812 -0.0128906 0.00966797 0.00966797 0.0290039 -0.00322266 -0.0128906 -0.0418945 -0.0515625 -0.0386719 -0.0257812 -0.0257812 0.00966797 0.0225586 0.0193359 0.00966797 -0.0128906 -0.0418945 -0.0515625 -0.0418945 -0.0257812 -0.00322266 0.00322266 0.0225586 0.0225586 0.0193359 -0.0128906 -0.0515625 -0.0547852 -0.0515625 -0.0257812 -0.00644531 0.0193359 0.0290039 0.0225586 0 -0.0128906 -0.0418945 -0.0644531 -0.0644531 -0.0322266 -0.00644531 0.00966797 0.0225586 0.0225586 0 -0.0128906 -0.0418945 -0.0644531 -0.0515625 -0.0257812 -0.0128906 0 0.0193359 0.0225586 -0.00322266 -0.0257812 -0.0644531 -0.0644531 -0.0483398 -0.0418945 0 0.0225586 0.0225586 0.0225586 0.00966797 -0.0128906 -0.0418945 -0.0644531 -0.0322266 -0.0547852 -0.00322266 0.0225586 0.0386719 0.0193359 0.00966797 -0.00644531 -0.0483398 -0.0580078 0 -0.0257812 -0.00644531 0.0193359 0.0290039 0.0225586 0 -0.0128906 -0.0418945 -0.0644531 -0.0644531 -0.0322266 -0.00644531 0.00966797 0.0225586 0.0225586 0 -0.0128906 -0.0418945 -0.0644531 -0.0515625 -0.0257812 -0.0128906 0 0.0193359 0.0225586 -0.00322266 -0.0257812 -0.0644531 -0.0644531 -0.0483398 -0.0418945 0 0.0225586 0.0225586 0.0225586 0.00966797 -0.0128906 -0.0418945 -0.0644531 -0.0322266 -0.0547852 -0.00322266 0.0225586 0.0386719 0.0193359 0.00966797 -0.00644531 -0.0483398 -0.0580078 -0.0483398 -0.0257812 -0.0128906 0.00966797 0.0225586 0.0193359 0 -0.0128906 -0.0418945 -0.0741211 -0.0515625 -0.0257812 -0.0128906 0 0.0225586 0.0225586 0 -0.0257812 -0.0515625 -0.0580078 -0.0515625 -0.0257812 -0.00644531 0.00966797 0.0225586 0.0225586 -0.00322266 -0.0128906 -0.0418945 -0.0515625 -0.0515625 -0.0418945 -0.00322266 0.00966797 0.0386719 0.00966797 -0.00644531 -0.0257812 -0.0418945 -0.0644531 -0.0418945 -0.0257812 -0.00644531 0.00966797 0.0225586 0.0225586 0.0193359 -0.0128906 -0.0322266 -0.0515625 0 -0.0257812 -0.0128906 0.00966797 0.0225586 0.0193359 0 -0.0128906 -0.0418945 -0.0741211 -0.0515625 -0.0257812 -0.0128906 0 0.0225586 0.0225586 0 -0.0257812 -0.0515625 -0.0580078 -0.0515625 -0.0257812 -0.00644531 0.00966797 0.0225586 0.0225586 -0.00322266 -0.0128906 -0.0418945 -0.0515625 -0.0515625 -0.0418945 -0.00322266 0.00966797 0.0386719 0.00966797 -0.00644531 -0.0257812 -0.0418945 -0.0644531 -0.0418945 -0.0257812 -0.00644531 0.00966797 0.0225586 0.0225586 0.0193359 -0.0128906 -0.0322266 -0.0515625 -0.0515625 -0.0515625 -0.00322266 0.0193359 0.0225586 0.0225586 -0.00322266 -0.0128906 -0.0515625 -0.0580078 -0.0515625 -0.0257812 0 0.00322266 0.0225586 0.0193359 0.00966797 -0.0257812 -0.0418945 -0.0515625 -0.0483398 -0.0257812 -0.00644531 0 0.0193359 0.0225586 0.0225586 -0.0128906 -0.0515625 -0.0580078 -0.0418945 -0.0257812 -0.00644531 0.0225586 0.0225586 0.0225586 0 -0.0257812 -0.0515625 -0.0580078 -0.0483398 -0.0418945 -0.0128906 0.00966797 0.0225586 0.00966797 0.00322266 -0.0257812 -0.0515625 -0.0644531 0 -0.0515625 -0.00322266 0.0193359 0.0225586 0.0225586 -0.00322266 -0.0128906 -0.0515625 -0.0580078 -0.0515625 -0.0257812 0 0.00322266 0.0225586 0.0193359 0.00966797 -0.0257812 -0.0418945 -0.0515625 -0.0483398 -0.0257812 -0.00644531 0 0.0193359 0.0225586 0.0225586 -0.0128906 -0.0515625 -0.0580078 -0.0418945 -0.0257812 -0.00644531 0.0225586 0.0225586 0.0225586 0 -0.0257812 -0.0515625 -0.0580078 -0.0483398 -0.0418945 -0.0128906 0.00966797 0.0225586 0.00966797 0.00322266 -0.0257812 -0.0515625 -0.0644531 -0.0644531 -0.0418945 -0.00322266 0.00966797 0.0483398 0.00966797 -0.00322266 -0.0418945 -0.0515625 -0.0741211 -0.0515625 -0.0322266 -0.00644531 0.0193359 0.0290039 0.0225586 0.00966797 -0.00322266 -0.0418945 -0.0644531 -0.0515625 -0.0257812 -0.00322266 0 0.0225586 0.0193359 0.00966797 -0.0225586 -0.0418945 -0.0515625 -0.0418945 -0.0257812 -0.00644531 0.00966797 0.0225586 0.00966797 0.0193359 -0.00644531 -0.0257812 -0.0483398 -0.0418945 -0.0257812 -0.00644531 0 0.0225586 0.00966797 0 -0.00644531 -0.0257812 -0.0515625 0 -0.0418945 -0.00322266 0.00966797 0.0483398 0.00966797 -0.00322266 -0.0418945 -0.0515625 -0.0741211 -0.0515625 -0.0322266 -0.00644531 0.0193359 0.0290039 0.0225586 0.00966797 -0.00322266 -0.0418945 -0.0644531 -0.0515625 -0.0257812 -0.00322266 0 0.0225586 0.0193359 0.00966797 -0.0225586 -0.0418945 -0.0515625 -0.0418945 -0.0257812 -0.00644531 0.00966797 0.0225586 0.00966797 0.0193359 -0.00644531 -0.0257812 -0.0483398 -0.0418945 -0.0257812 -0.00644531 0 0.0225586 0.00966797 0 -0.00644531 -0.0257812 -0.0515625 -0.0418945 -0.0257812 -0.00322266 0.00966797 0.0225586 0.00322266 -0.00322266 -0.0257812 -0.0483398 -0.0483398 -0.0515625 -0.0483398 -0.00644531 0.00966797 0.0225586 0.0290039 0.00966797 0 -0.0257812 -0.0418945 -0.0418945 -0.0418945 -0.0225586 0 0.00966797 0.0193359 0 -0.0128906 -0.0322266 -0.0483398 -0.0418945 -0.0257812 -0.0257812 0 0.0128906 0.00966797 0 -0.00644531 -0.0257812 -0.0515625 -0.0515625 -0.0418945 -0.0257812 0.00322266 0.00966797 0 0.00966797 -0.0128906 -0.0515625 -0.0483398 0 -0.0257812 -0.00322266 0.00966797 0.0225586 0.00322266 -0.00322266 -0.0257812 -0.0483398 -0.0483398 -0.0515625 -0.0483398 -0.00644531 0.00966797 0.0225586 0.0290039 0.00966797 0 -0.0257812 -0.0418945 -0.0418945 -0.0418945 -0.0225586 0 0.00966797 0.0193359 0 -0.0128906 -0.0322266 -0.0483398 -0.0418945 -0.0257812 -0.0257812 0 0.0128906 0.00966797 0 -0.00644531 -0.0257812 -0.0515625 -0.0515625 -0.0418945 -0.0257812 0.00322266 0.00966797 0 0.00966797 -0.0128906 -0.0515625 -0.0483398 -0.0483398 -0.0418945 -0.00644531 0.00966797 0.0225586 0.0225586 -0.0128906 -0.0225586 -0.0257812 -0.0515625 -0.0515625 -0.0418945 -0.0128906 -0.00322266 0 0.00966797 0.00322266 -0.00322266 -0.0257812 -0.0515625 -0.0580078 -0.0322266 -0.0128906 0.00966797 0.00966797 -0.00322266 0 -0.0225586 -0.0418945 -0.0418945 -0.0418945 -0.0257812 -0.0128906 -0.00644531 -0.00644531 0.00966797 0.00966797 -0.00644531 -0.0257812 -0.0483398 -0.0418945 -0.0257812 -0.0128906 -0.00322266 0 0.0193359 0 -0.00644531 -0.0257812 -0.0483398 0 -0.0418945 -0.00644531 0.00966797 0.0225586 0.0225586 -0.0128906 -0.0225586 -0.0257812 -0.0515625 -0.0515625 -0.0418945 -0.0128906 -0.00322266 0 0.00966797 0.00322266 -0.00322266 -0.0257812 -0.0515625 -0.0580078 -0.0322266 -0.0128906 0.00966797 0.00966797 -0.00322266 0 -0.0225586 -0.0418945 -0.0418945 -0.0418945 -0.0257812 -0.0128906 -0.00644531 -0.00644531 0.00966797 0.00966797 -0.00644531 -0.0257812 -0.0483398 -0.0418945 -0.0257812 -0.0128906 -0.00322266 0 0.0193359 0 -0.00644531 -0.0257812 -0.0483398 -0.0418945 -0.0257812 -0.0257812 0.00966797 0.0225586 0 0.00322266 -0.00322266 -0.0257812 -0.0418945 -0.0386719 -0.0225586 -0.0257812 -0.00322266 0.00966797 0.00322266 0 -0.0128906 -0.0257812 -0.0483398 -0.0515625 -0.0418945 -0.0128906 0 0.00966797 0.00966797 0.00966797 -0.00644531 -0.0257812 -0.0515625 -0.0515625 -0.0257812 -0.00644531 0 0.0193359 0.0225586 0.0193359 0 -0.0257812 -0.0418945 -0.0257812 -0.0128906 -0.00644531 0.00322266 0.0225586 0.0193359 0.0225586 -0.0128906 -0.0418945 -0.0547852 0 -0.0257812 -0.0257812 0.00966797 0.0225586 0 0.00322266 -0.00322266 -0.0257812 -0.0418945 -0.0386719 -0.0225586 -0.0257812 -0.00322266 0.00966797 0.00322266 0 -0.0128906 -0.0257812 -0.0483398 -0.0515625 -0.0418945 -0.0128906 0 0.00966797 0.00966797 0.00966797 -0.00644531 -0.0257812 -0.0515625 -0.0515625 -0.0257812 -0.00644531 0 0.0193359 0.0225586 0.0193359 0 -0.0257812 -0.0418945 -0.0257812 -0.0128906 -0.00644531 0.00322266 0.0225586 0.0193359 0.0225586 -0.0128906 -0.0418945 -0.0547852 -0.0483398 -0.0322266 -0.00644531 0 0.0193359 0 0 -0.0128906 -0.0257812 -0.0483398 -0.0515625 -0.0128906 -0.0257812 0 0.0225586 0.0225586 -0.00644531 -0.0257812 -0.0483398 -0.0580078 -0.0580078 -0.0418945 -0.0225586 -0.00322266 0.00966797 0.00966797 -0.00322266 -0.0128906 -0.0483398 -0.0644531 -0.0418945 -0.0257812 0.00966797 -0.0257812 0.00322266 0.00322266 0 -0.0257812 -0.0418945 -0.0515625 -0.0580078 -0.0580078 -0.00322266 0.0193359 0.0386719 0.0225586 0.00966797 -0.0225586 -0.0418945 -0.0515625 0 -0.0322266 -0.00644531 0 0.0193359 0 0 -0.0128906 -0.0257812 -0.0483398 -0.0515625 -0.0128906 -0.0257812 0 0.0225586 0.0225586 -0.00644531 -0.0257812 -0.0483398 -0.0580078 -0.0580078 -0.0418945 -0.0225586 -0.00322266 0.00966797 0.00966797 -0.00322266 -0.0128906 -0.0483398 -0.0644531 -0.0418945 -0.0257812 0.00966797 -0.0257812 0.00322266 0.00322266 0 -0.0257812 -0.0418945 -0.0515625 -0.0580078 -0.0580078 -0.00322266 0.0193359 0.0386719 0.0225586 0.00966797 -0.0225586 -0.0418945 -0.0515625 -0.0515625 -0.0257812 -0.00322266 0.0225586 0.0386719 0.00966797 0.00322266 -0.0128906 -0.0257812 -0.0257812 -0.0257812 -0.0128906 0.00322266 0.0225586 0.0483398 0.0193359 0 -0.00644531 -0.0322266 -0.0580078 -0.0515625 -0.0322266 -0.0128906 0.00966797 0.0225586 0.0193359 0 -0.0128906 -0.0483398 -0.0741211 -0.0515625 -0.0418945 -0.0128906 0.00966797 0.0225586 0.0193359 0.00322266 -0.0257812 -0.0515625 -0.0741211 -0.0515625 -0.0257812 -0.00322266 0.0225586 0.0225586 0 0.00966797 -0.0257812 -0.0515625 -0.0644531 0 -0.0257812 -0.00322266 0.0225586 0.0386719 0.00966797 0.00322266 -0.0128906 -0.0257812 -0.0257812 -0.0257812 -0.0128906 0.00322266 0.0225586 0.0483398 0.0193359 0 -0.00644531 -0.0322266 -0.0580078 -0.0515625 -0.0322266 -0.0128906 0.00966797 0.0225586 0.0193359 0 -0.0128906 -0.0483398 -0.0741211 -0.0515625 -0.0418945 -0.0128906 0.00966797 0.0225586 0.0193359 0.00322266 -0.0257812 -0.0515625 -0.0741211 -0.0515625 -0.0257812 -0.00322266 0.0225586 0.0225586 0 0.00966797 -0.0257812 -0.0515625 -0.0644531 -0.0644531 -0.0418945 -0.0128906 0.00966797 0.0225586 0.0193359 0.00322266 -0.0225586 -0.0580078 -0.0805664 -0.0483398 -0.0418945 -0.00644531 -0.00644531 0.0451172 0.0451172 0.00966797 -0.00322266 -0.0128906 -0.0257812 -0.00644531 -0.0257812 -0.0418945 0.0451172 0.132129 0.203027 0.26748 0.0225586 -0.128906 -0.0257812 -0.31582 -0.35127 -0.4125 -0.0999023 0.125684 -0.183691 -0.161133 0.0902344 -0.20625 0.132129 0.409277 0.409277 0.489844 -1.65 -1.34062 0.0999023 1.18594 1.2375 0.924902 0.560742 0 -0.0418945 -0.0128906 0.00966797 0.0225586 0.0193359 0.00322266 -0.0225586 -0.0580078 -0.0805664 -0.0483398 -0.0418945 -0.00644531 -0.00644531 0.0451172 0.0451172 0.00966797 -0.00322266 -0.0128906 -0.0257812 -0.00644531 -0.0257812 -0.0418945 0.0451172 0.132129 0.203027 0.26748 0.0225586 -0.128906 -0.0257812 -0.31582 -0.35127 -0.4125 -0.0999023 0.125684 -0.183691 -0.161133 0.0902344 -0.20625 0.132129 0.409277 0.409277 0.489844 -1.65 -1.34062 0.0999023 1.18594 1.2375 0.924902 0.560742 -0.167578 -0.605859 -0.505957 0.0612305 0.312598 0.125684 -0.0128906 -0.151465 -0.712207 -0.367383 -0.103125 0 0.125684 0.0483398 0.15791 0.154687 -0.103125 -0.116016 -0.00644531 -0.00322266 -0.196582 -0.4125 -0.425391 -0.31582 -0.161133 0.0451172 0.154687 0.15791 -0.322266 -0.25459 -0.10957 -0.128906 0.112793 -0.0257812 -0.0515625 -0.232031 -0.167578 0.125684 0.386719 0.409277 0.296484 0.348047 0.261035 0.148242 0.112793 0.26748 0.15791 0.154687 0.141797 0.0902344 0 -0.605859 -0.505957 0.0612305 0.312598 0.125684 -0.0128906 -0.151465 -0.712207 -0.367383 -0.103125 0 0.125684 0.0483398 0.15791 0.154687 -0.103125 -0.116016 -0.00644531 -0.00322266 -0.196582 -0.4125 -0.425391 -0.31582 -0.161133 0.0451172 0.154687 0.15791 -0.322266 -0.25459 -0.10957 -0.128906 0.112793 -0.0257812 -0.0515625 -0.232031 -0.167578 0.125684 0.386719 0.409277 0.296484 0.348047 0.261035 0.148242 0.112793 0.26748 0.15791 0.154687 0.141797 0.0902344 0.0225586 -0.128906 -0.0257812 -0.00322266 0.0999023 0.0773437 0.112793 0.0483398 -0.00644531 -0.0644531 -0.0418945 -0.0418945 -0.0225586 -0.0418945 -0.0128906 0.00966797 -0.0225586 -0.0515625 -0.103125 -0.103125 -0.0805664 -0.0515625 -0.00322266 0.0386719 0.0451172 0.0386719 0.0612305 -0.00322266 -0.0483398 -0.0580078 -0.0741211 -0.0580078 -0.0322266 -0.0257812 -0.0515625 -0.0515625 -0.0644531 -0.0837891 -0.10957 -0.14502 -0.128906 -0.128906 -0.10957 -0.0805664 -0.0418945 -0.0128906 -0.0257812 -0.0483398 -0.0644531 -0.0580078 0 -0.128906 -0.0257812 -0.00322266 0.0999023 0.0773437 0.112793 0.0483398 -0.00644531 -0.0644531 -0.0418945 -0.0418945 -0.0225586 -0.0418945 -0.0128906 0.00966797 -0.0225586 -0.0515625 -0.103125 -0.103125 -0.0805664 -0.0515625 -0.00322266 0.0386719 0.0451172 0.0386719 0.0612305 -0.00322266 -0.0483398 -0.0580078 -0.0741211 -0.0580078 -0.0322266 -0.0257812 -0.0515625 -0.0515625 -0.0644531 -0.0837891 -0.10957 -0.14502 -0.128906 -0.128906 -0.10957 -0.0805664 -0.0418945 -0.0128906 -0.0257812 -0.0483398 -0.0644531 -0.0580078 -0.0805664 -0.0483398 -0.00322266 -0.00322266 -0.0418945 0.0225586 0.00966797 -0.0128906 -0.0128906 -0.0257812 -0.00322266 0.00966797 0.0193359 0.0547852 0.0290039 0.0225586 0 0 0 -0.0515625 -0.0225586 -0.0128906 0.0225586 0.0483398 0.0483398 0.0225586 -0.0128906 -0.0418945 -0.0644531 -0.093457 -0.093457 -0.0805664 -0.0515625 -0.0418945 -0.0128906 -0.0128906 -0.0322266 -0.0805664 -0.0805664 -0.0999023 -0.093457 -0.0805664 -0.0580078 -0.0483398 -0.0128906 -0.0128906 -0.0225586 -0.0515625 -0.0676758 -0.0805664 0 -0.0483398 -0.00322266 -0.00322266 -0.0418945 0.0225586 0.00966797 -0.0128906 -0.0128906 -0.0257812 -0.00322266 0.00966797 0.0193359 0.0547852 0.0290039 0.0225586 0 0 0 -0.0515625 -0.0225586 -0.0128906 0.0225586 0.0483398 0.0483398 0.0225586 -0.0128906 -0.0418945 -0.0644531 -0.093457 -0.093457 -0.0805664 -0.0515625 -0.0418945 -0.0128906 -0.0128906 -0.0322266 -0.0805664 -0.0805664 -0.0999023 -0.093457 -0.0805664 -0.0580078 -0.0483398 -0.0128906 -0.0128906 -0.0225586 -0.0515625 -0.0676758 -0.0805664 -0.0580078 -0.0483398 -0.0128906 0.00966797 0.0290039 0.0225586 -0.00644531 -0.0257812 -0.0386719 -0.0644531 -0.0644531 -0.0257812 -0.0128906 0.0225586 0.0225586 0.0225586 -0.0257812 -0.0225586 -0.0257812 -0.0805664 -0.0515625 -0.0386719 0 0.00966797 0.0612305 0.0386719 0.0225586 -0.00322266 -0.0418945 -0.0644531 -0.0257812 -0.0322266 -0.0128906 0.0483398 0.0612305 0.0386719 0.00966797 -0.0225586 -0.0644531 -0.0805664 -0.0805664 -0.0515625 -0.0128906 0 0.0193359 0.0193359 -0.0128906 -0.0483398 -0.0805664 -0.10957 0 -0.0483398 -0.0128906 0.00966797 0.0290039 0.0225586 -0.00644531 -0.0257812 -0.0386719 -0.0644531 -0.0644531 -0.0257812 -0.0128906 0.0225586 0.0225586 0.0225586 -0.0257812 -0.0225586 -0.0257812 -0.0805664 -0.0515625 -0.0386719 0 0.00966797 0.0612305 0.0386719 0.0225586 -0.00322266 -0.0418945 -0.0644531 -0.0257812 -0.0322266 -0.0128906 0.0483398 0.0612305 0.0386719 0.00966797 -0.0225586 -0.0644531 -0.0805664 -0.0805664 -0.0515625 -0.0128906 0 0.0193359 0.0193359 -0.0128906 -0.0483398 -0.0805664 -0.10957 -0.093457 -0.0805664 -0.0257812 0.0225586 0.0547852 0.0225586 0.0225586 -0.00644531 -0.0515625 -0.0805664 -0.0580078 -0.0257812 -0.0225586 0.0225586 0.0483398 0.0451172 0.0193359 -0.00644531 -0.0515625 -0.0805664 -0.0515625 -0.0257812 0 0.0225586 0.0386719 0.0225586 -0.00322266 -0.0418945 -0.0515625 -0.0805664 -0.0644531 -0.0547852 -0.0128906 0.00966797 0.0451172 0.0386719 0.0193359 -0.0257812 -0.0483398 -0.0741211 -0.0644531 -0.0483398 -0.0128906 0.0193359 0.0225586 0.0225586 0.00966797 -0.0128906 -0.0418945 -0.0741211 0 -0.0805664 -0.0257812 0.0225586 0.0547852 0.0225586 0.0225586 -0.00644531 -0.0515625 -0.0805664 -0.0580078 -0.0257812 -0.0225586 0.0225586 0.0483398 0.0451172 0.0193359 -0.00644531 -0.0515625 -0.0805664 -0.0515625 -0.0257812 0 0.0225586 0.0386719 0.0225586 -0.00322266 -0.0418945 -0.0515625 -0.0805664 -0.0644531 -0.0547852 -0.0128906 0.00966797 0.0451172 0.0386719 0.0193359 -0.0257812 -0.0483398 -0.0741211 -0.0644531 -0.0483398 -0.0128906 0.0193359 0.0225586 0.0225586 0.00966797 -0.0128906 -0.0418945 -0.0741211 -0.0515625 -0.0322266 -0.0257812 0.0225586 0.0483398 0.0451172 0.0193359 -0.00644531 -0.0483398 -0.0644531 -0.0515625 -0.0418945 -0.00644531 0.0225586 0.0386719 0.0225586 0.00322266 -0.0128906 -0.0257812 -0.0580078 -0.0515625 -0.0418945 -0.00644531 0.00322266 0.0193359 0.0290039 0.00966797 -0.0322266 -0.0418945 -0.0805664 -0.0580078 -0.0515625 0 0.00966797 0.0483398 0.0225586 0.00322266 -0.0257812 -0.0515625 -0.0805664 -0.0580078 -0.0515625 -0.0128906 0.0225586 0.0483398 0.0386719 0 -0.0128906 -0.0483398 -0.0741211 0 -0.0322266 -0.0257812 0.0225586 0.0483398 0.0451172 0.0193359 -0.00644531 -0.0483398 -0.0644531 -0.0515625 -0.0418945 -0.00644531 0.0225586 0.0386719 0.0225586 0.00322266 -0.0128906 -0.0257812 -0.0580078 -0.0515625 -0.0418945 -0.00644531 0.00322266 0.0193359 0.0290039 0.00966797 -0.0322266 -0.0418945 -0.0805664 -0.0580078 -0.0515625 0 0.00966797 0.0483398 0.0225586 0.00322266 -0.0257812 -0.0515625 -0.0805664 -0.0580078 -0.0515625 -0.0128906 0.0225586 0.0483398 0.0386719 0 -0.0128906 -0.0483398 -0.0741211 -0.0644531 -0.0644531 -0.0225586 0.00966797 0.0483398 0.0225586 0.0225586 -0.0257812 -0.0483398 -0.0741211 -0.0515625 -0.0418945 -0.00644531 0.00966797 0.0483398 0.0225586 0.00966797 -0.0225586 -0.0515625 -0.0805664 -0.0580078 -0.0515625 -0.0128906 0.0225586 0.0386719 0.0225586 0.0225586 -0.00322266 -0.0644531 -0.0837891 -0.0580078 -0.0515625 -0.00644531 0.0225586 0.0290039 0.0386719 0.0193359 -0.0128906 -0.0418945 -0.0644531 -0.0515625 -0.0418945 -0.0225586 0.00966797 0.0386719 0.0386719 0.00966797 -0.0128906 -0.0483398 -0.0483398 0 -0.0644531 -0.0225586 0.00966797 0.0483398 0.0225586 0.0225586 -0.0257812 -0.0483398 -0.0741211 -0.0515625 -0.0418945 -0.00644531 0.00966797 0.0483398 0.0225586 0.00966797 -0.0225586 -0.0515625 -0.0805664 -0.0580078 -0.0515625 -0.0128906 0.0225586 0.0386719 0.0225586 0.0225586 -0.00322266 -0.0644531 -0.0837891 -0.0580078 -0.0515625 -0.00644531 0.0225586 0.0290039 0.0386719 0.0193359 -0.0128906 -0.0418945 -0.0644531 -0.0515625 -0.0418945 -0.0225586 0.00966797 0.0386719 0.0386719 0.00966797 -0.0128906 -0.0483398 -0.0483398 -0.0580078 -0.0515625 -0.0257812 0.00966797 0.0451172 0.0386719 0.0225586 -0.0128906 -0.0515625 -0.0805664 -0.0676758 -0.0322266 0 0.00966797 0.00966797 0.0225586 0.00966797 -0.00644531 -0.0483398 -0.0644531 -0.0580078 -0.0257812 0.00322266 0.0225586 0.0451172 0.0386719 0.00322266 -0.00644531 -0.0418945 -0.0741211 -0.0644531 -0.0322266 -0.0257812 0 0.0225586 0.00966797 0.00966797 -0.0128906 -0.0418945 -0.0515625 -0.0515625 -0.0257812 -0.00322266 0 0.00966797 0.0225586 0.00966797 -0.0128906 -0.0515625 -0.0644531 0 -0.0515625 -0.0257812 0.00966797 0.0451172 0.0386719 0.0225586 -0.0128906 -0.0515625 -0.0805664 -0.0676758 -0.0322266 0 0.00966797 0.00966797 0.0225586 0.00966797 -0.00644531 -0.0483398 -0.0644531 -0.0580078 -0.0257812 0.00322266 0.0225586 0.0451172 0.0386719 0.00322266 -0.00644531 -0.0418945 -0.0741211 -0.0644531 -0.0322266 -0.0257812 0 0.0225586 0.00966797 0.00966797 -0.0128906 -0.0418945 -0.0515625 -0.0515625 -0.0257812 -0.00322266 0 0.00966797 0.0225586 0.00966797 -0.0128906 -0.0515625 -0.0644531 -0.0515625 -0.0322266 -0.0128906 0.0193359 0.0386719 0.00966797 0.0193359 -0.00322266 -0.0418945 -0.0644531 -0.0580078 -0.0257812 0 0.0225586 0.0386719 0.0290039 0.0225586 -0.0128906 -0.0418945 -0.0805664 -0.0741211 -0.0515625 -0.0128906 0.0225586 0.0386719 0.0225586 0.0225586 -0.00322266 -0.0257812 -0.0644531 -0.0644531 -0.0515625 -0.0257812 0.00966797 0 0.00966797 0.00966797 -0.0128906 -0.0515625 -0.0515625 -0.0515625 -0.0322266 -0.00644531 0 0.00322266 0.00966797 0.0225586 -0.00322266 -0.0257812 -0.0515625 0 -0.0322266 -0.0128906 0.0193359 0.0386719 0.00966797 0.0193359 -0.00322266 -0.0418945 -0.0644531 -0.0580078 -0.0257812 0 0.0225586 0.0386719 0.0290039 0.0225586 -0.0128906 -0.0418945 -0.0805664 -0.0741211 -0.0515625 -0.0128906 0.0225586 0.0386719 0.0225586 0.0225586 -0.00322266 -0.0257812 -0.0644531 -0.0644531 -0.0515625 -0.0257812 0.00966797 0 0.00966797 0.00966797 -0.0128906 -0.0515625 -0.0515625 -0.0515625 -0.0322266 -0.00644531 0 0.00322266 0.00966797 0.0225586 -0.00322266 -0.0257812 -0.0515625 -0.0515625 -0.0515625 -0.0128906 -0.0128906 -0.00644531 0 0.0193359 0.00322266 -0.0128906 -0.0644531 -0.0418945 -0.0418945 -0.0128906 0 0.00966797 -0.00322266 0.00322266 -0.00322266 -0.0257812 -0.0418945 -0.0483398 -0.0418945 -0.0128906 -0.00644531 0.0193359 0.0225586 0.00966797 -0.00322266 -0.0257812 -0.0515625 -0.0515625 -0.0418945 -0.0128906 0.0193359 0.0386719 0.0386719 0.00966797 -0.00322266 -0.0257812 -0.0644531 -0.0515625 -0.0257812 -0.0225586 0.00322266 0.0193359 0.0225586 0.00966797 -0.0128906 -0.0418945 -0.0805664 0 -0.0515625 -0.0128906 -0.0128906 -0.00644531 0 0.0193359 0.00322266 -0.0128906 -0.0644531 -0.0418945 -0.0418945 -0.0128906 0 0.00966797 -0.00322266 0.00322266 -0.00322266 -0.0257812 -0.0418945 -0.0483398 -0.0418945 -0.0128906 -0.00644531 0.0193359 0.0225586 0.00966797 -0.00322266 -0.0257812 -0.0515625 -0.0515625 -0.0418945 -0.0128906 0.0193359 0.0386719 0.0386719 0.00966797 -0.00322266 -0.0257812 -0.0644531 -0.0515625 -0.0257812 -0.0225586 0.00322266 0.0193359 0.0225586 0.00966797 -0.0128906 -0.0418945 -0.0805664 -0.0515625 -0.0483398 -0.0257812 0.0225586 0.0225586 0.0386719 0.00966797 -0.00644531 -0.0515625 -0.0741211 -0.0580078 -0.0515625 -0.0257812 0.00966797 0.0225586 0.00322266 0 -0.00644531 -0.0257812 -0.0418945 -0.0418945 -0.0322266 -0.0128906 0.00966797 0.00322266 0.00966797 0.0193359 -0.0128906 -0.0257812 -0.0644531 -0.0418945 -0.0515625 -0.0257812 -0.00644531 0.00966797 0.00322266 0.00966797 -0.00322266 -0.0257812 -0.0418945 -0.0418945 -0.0418945 -0.0257812 0 0.0225586 0.0225586 0.00966797 -0.00322266 -0.0257812 -0.0322266 0 -0.0483398 -0.0257812 0.0225586 0.0225586 0.0386719 0.00966797 -0.00644531 -0.0515625 -0.0741211 -0.0580078 -0.0515625 -0.0257812 0.00966797 0.0225586 0.00322266 0 -0.00644531 -0.0257812 -0.0418945 -0.0418945 -0.0322266 -0.0128906 0.00966797 0.00322266 0.00966797 0.0193359 -0.0128906 -0.0257812 -0.0644531 -0.0418945 -0.0515625 -0.0257812 -0.00644531 0.00966797 0.00322266 0.00966797 -0.00322266 -0.0257812 -0.0418945 -0.0418945 -0.0418945 -0.0257812 0 0.0225586 0.0225586 0.00966797 -0.00322266 -0.0257812 -0.0322266 -0.0483398 -0.0322266 -0.0418945 0 0.0193359 0.0225586 0.00966797 -0.00322266 -0.0418945 -0.0418945 -0.0515625 -0.0515625 -0.0128906 0.0193359 -0.00322266 0.00322266 0.00966797 -0.0128906 -0.0257812 -0.0483398 -0.0418945 -0.0418945 -0.0257812 -0.00322266 0.00966797 0.0193359 0.00966797 -0.00322266 -0.0225586 -0.0418945 -0.0483398 -0.0515625 -0.0257812 -0.0128906 0.00322266 0.0193359 0.00322266 -0.00322266 -0.0257812 -0.0418945 -0.0322266 -0.0257812 -0.0257812 0 0.0225586 0.00966797 0 -0.00644531 -0.0257812 -0.0418945 0 -0.0322266 -0.0418945 0 0.0193359 0.0225586 0.00966797 -0.00322266 -0.0418945 -0.0418945 -0.0515625 -0.0515625 -0.0128906 0.0193359 -0.00322266 0.00322266 0.00966797 -0.0128906 -0.0257812 -0.0483398 -0.0418945 -0.0418945 -0.0257812 -0.00322266 0.00966797 0.0193359 0.00966797 -0.00322266 -0.0225586 -0.0418945 -0.0483398 -0.0515625 -0.0257812 -0.0128906 0.00322266 0.0193359 0.00322266 -0.00322266 -0.0257812 -0.0418945 -0.0322266 -0.0257812 -0.0257812 0 0.0225586 0.00966797 0 -0.00644531 -0.0257812 -0.0418945 -0.0483398 -0.0322266 -0.0257812 -0.0128906 0.00966797 0.0225586 0.00322266 -0.00322266 -0.0128906 -0.0257812 -0.0418945 -0.0257812 -0.0257812 -0.0128906 0.00966797 0 0.00966797 -0.0128906 -0.0128906 -0.0225586 -0.0257812 -0.0418945 -0.0257812 -0.00322266 0.00966797 0.0225586 -0.00322266 -0.00322266 -0.0128906 -0.0257812 -0.0257812 -0.0418945 -0.0483398 -0.0225586 0.00966797 0.00966797 0 -0.00322266 -0.0128906 -0.0418945 -0.0418945 -0.0483398 -0.0257812 -0.0225586 -0.00322266 0.00322266 0.00966797 0 -0.00644531 -0.0257812 0 -0.0322266 -0.0257812 -0.0128906 0.00966797 0.0225586 0.00322266 -0.00322266 -0.0128906 -0.0257812 -0.0418945 -0.0257812 -0.0257812 -0.0128906 0.00966797 0 0.00966797 -0.0128906 -0.0128906 -0.0225586 -0.0257812 -0.0418945 -0.0257812 -0.00322266 0.00966797 0.0225586 -0.00322266 -0.00322266 -0.0128906 -0.0257812 -0.0257812 -0.0418945 -0.0483398 -0.0225586 0.00966797 0.00966797 0 -0.00322266 -0.0128906 -0.0418945 -0.0418945 -0.0483398 -0.0257812 -0.0225586 -0.00322266 0.00322266 0.00966797 0 -0.00644531 -0.0257812 -0.0257812 -0.0322266 -0.0257812 -0.00644531 -0.00322266 0 0.00966797 0 -0.00644531 -0.0257812 -0.0418945 -0.0322266 -0.0257812 0 -0.00322266 0.0225586 0.0225586 0 -0.0225586 -0.0515625 -0.0515625 -0.0418945 -0.0257812 -0.0128906 0.0225586 0.0225586 -0.0257812 -0.0257812 -0.0128906 -0.0257812 -0.0418945 -0.0483398 -0.0257812 -0.0128906 0.00966797 0.0225586 0.0225586 -0.00322266 -0.0257812 -0.0257812 -0.0418945 -0.0483398 -0.0257812 -0.00644531 0 0 0.00322266 -0.00322266 -0.0128906 -0.0257812 0 -0.0322266 -0.0257812 -0.00644531 -0.00322266 0 0.00966797 0 -0.00644531 -0.0257812 -0.0418945 -0.0322266 -0.0257812 0 -0.00322266 0.0225586 0.0225586 0 -0.0225586 -0.0515625 -0.0515625 -0.0418945 -0.0257812 -0.0128906 0.0225586 0.0225586 -0.0257812 -0.0257812 -0.0128906 -0.0257812 -0.0418945 -0.0483398 -0.0257812 -0.0128906 0.00966797 0.0225586 0.0225586 -0.00322266 -0.0257812 -0.0257812 -0.0418945 -0.0483398 -0.0257812 -0.00644531 0 0 0.00322266 -0.00322266 -0.0128906 -0.0257812 -0.0418945 -0.0418945 -0.0257812 -0.00322266 0.00322266 0 0.00966797 -0.00644531 -0.0128906 -0.0257812 -0.0418945 -0.0418945 -0.0225586 0.00966797 0.0225586 0.0225586 0.00966797 -0.00322266 -0.0257812 -0.0515625 -0.0515625 -0.0418945 -0.0322266 -0.00644531 0.00966797 0.0225586 0 -0.00322266 -0.0418945 -0.0418945 -0.0386719 -0.0257812 -0.0225586 -0.0257812 -0.0128906 0.0225586 0 -0.00644531 -0.0225586 -0.0418945 -0.0515625 -0.0418945 -0.0257812 -0.00322266 -0.00322266 0.00322266 0.00966797 -0.00322266 -0.00322266 -0.0418945 0 -0.0418945 -0.0257812 -0.00322266 0.00322266 0 0.00966797 -0.00644531 -0.0128906 -0.0257812 -0.0418945 -0.0418945 -0.0225586 0.00966797 0.0225586 0.0225586 0.00966797 -0.00322266 -0.0257812 -0.0515625 -0.0515625 -0.0418945 -0.0322266 -0.00644531 0.00966797 0.0225586 0 -0.00322266 -0.0418945 -0.0418945 -0.0386719 -0.0257812 -0.0225586 -0.0257812 -0.0128906 0.0225586 0 -0.00644531 -0.0225586 -0.0418945 -0.0515625 -0.0418945 -0.0257812 -0.00322266 -0.00322266 0.00322266 0.00966797 -0.00322266 -0.00322266 -0.0418945 -0.0418945 -0.0257812 -0.0257812 -0.0257812 -0.00322266 0.0193359 0.0193359 0 -0.0257812 -0.0483398 -0.0483398 -0.0483398 -0.0322266 -0.0128906 0.00322266 0.0193359 0.00966797 0 -0.00644531 -0.0515625 -0.0418945 -0.0257812 -0.0257812 -0.0225586 -0.00322266 0 0.00966797 0.00322266 -0.0128906 -0.0257812 -0.0257812 -0.0322266 -0.0225586 -0.0257812 -0.00644531 0.0193359 0.00966797 0 -0.0225586 -0.0257812 -0.0257812 -0.0483398 -0.0257812 -0.0257812 -0.00322266 0.00322266 0.0225586 -0.00644531 -0.0128906 -0.0128906 0 -0.0257812 -0.0257812 -0.0257812 -0.00322266 0.0193359 0.0193359 0 -0.0257812 -0.0483398 -0.0483398 -0.0483398 -0.0322266 -0.0128906 0.00322266 0.0193359 0.00966797 0 -0.00644531 -0.0515625 -0.0418945 -0.0257812 -0.0257812 -0.0225586 -0.00322266 0 0.00966797 0.00322266 -0.0128906 -0.0257812 -0.0257812 -0.0322266 -0.0225586 -0.0257812 -0.00644531 0.0193359 0.00966797 0 -0.0225586 -0.0257812 -0.0257812 -0.0483398 -0.0257812 -0.0257812 -0.00322266 0.00322266 0.0225586 -0.00644531 -0.0128906 -0.0128906 -0.0418945 -0.0418945 -0.0257812 -0.0128906 0 0.0193359 0.00966797 -0.00644531 -0.0225586 -0.0257812 -0.0515625 -0.0322266 -0.0257812 -0.0128906 -0.0128906 0.0193359 0.0193359 -0.00322266 -0.00322266 -0.0128906 -0.0515625 -0.0580078 -0.0257812 -0.0257812 0.00322266 0.0225586 0.00966797 -0.00644531 -0.0128906 -0.0257812 -0.0322266 -0.0257812 -0.0322266 -0.0225586 0 -0.0225586 0.0225586 -0.00322266 -0.0225586 -0.0418945 -0.0418945 -0.0483398 -0.0257812 -0.0128906 0.00322266 0.00966797 0.0193359 0 -0.0257812 -0.0418945 0 -0.0418945 -0.0257812 -0.0128906 0 0.0193359 0.00966797 -0.00644531 -0.0225586 -0.0257812 -0.0515625 -0.0322266 -0.0257812 -0.0128906 -0.0128906 0.0193359 0.0193359 -0.00322266 -0.00322266 -0.0128906 -0.0515625 -0.0580078 -0.0257812 -0.0257812 0.00322266 0.0225586 0.00966797 -0.00644531 -0.0128906 -0.0257812 -0.0322266 -0.0257812 -0.0322266 -0.0225586 0 -0.0225586 0.0225586 -0.00322266 -0.0225586 -0.0418945 -0.0418945 -0.0483398 -0.0257812 -0.0128906 0.00322266 0.00966797 0.0193359 0 -0.0257812 -0.0418945 -0.0483398 -0.0418945 -0.0257812 -0.0128906 -0.00322266 0.0193359 0.00966797 -0.00644531 -0.0225586 -0.0257812 -0.0418945 -0.0418945 -0.0225586 -0.0128906 0.0193359 -0.00322266 0 -0.0257812 -0.0257812 -0.0418945 -0.0418945 -0.0418945 -0.0257812 -0.0128906 0 0.00966797 0.00966797 0 -0.0257812 -0.0257812 -0.0418945 -0.0418945 -0.0257812 -0.0128906 0 0.00966797 0 0 -0.0128906 -0.0257812 -0.0418945 -0.0418945 -0.0225586 -0.0225586 -0.00322266 0.00966797 0.0193359 0.00322266 -0.0225586 -0.0257812 0 -0.0418945 -0.0257812 -0.0128906 -0.00322266 0.0193359 0.00966797 -0.00644531 -0.0225586 -0.0257812 -0.0418945 -0.0418945 -0.0225586 -0.0128906 0.0193359 -0.00322266 0 -0.0257812 -0.0257812 -0.0418945 -0.0418945 -0.0418945 -0.0257812 -0.0128906 0 0.00966797 0.00966797 0 -0.0257812 -0.0257812 -0.0418945 -0.0418945 -0.0257812 -0.0128906 0 0.00966797 0 0 -0.0128906 -0.0257812 -0.0418945 -0.0418945 -0.0225586 -0.0225586 -0.00322266 0.00966797 0.0193359 0.00322266 -0.0225586 -0.0257812 -0.0257812 -0.0418945 -0.0257812 -0.0128906 -0.00644531 0.0193359 0.00966797 -0.0128906 -0.0128906 -0.0483398 -0.0515625 -0.0257812 -0.0322266 -0.0128906 0 0.0193359 0.00966797 -0.0418945 -0.0128906 -0.0257812 -0.0515625 -0.0483398 -0.0322266 -0.0225586 0 0.00966797 0.0225586 0 -0.0257812 -0.0257812 -0.0418945 -0.0418945 -0.0257812 -0.0128906 -0.00322266 0.00966797 0.00966797 0 -0.0225586 -0.0418945 -0.0418945 -0.0418945 -0.0257812 -0.00322266 0.00966797 0.00966797 0.00966797 0 -0.0128906 -0.0418945 0 