0.0773437 0.0773437 0.0225586 -0.0257812 -0.0547852 -0.093457 -0.103125 -0.0805664 -0.0128906 0.0386719 0.0773437 0.0773437 0.0225586 -0.0257812 -0.0644531 -0.103125 -0.093457 -0.0805664 -0.00644531 0.0386719 0.0547852 0.0612305 0.0386719 -0.0128906 -0.0644531 -0.103125 -0.093457 -0.0644531 -0.00322266 0.0483398 0.0773437 0.0483398 0.0483398 0 -0.0515625 -0.0805664 -0.0644531 -0.0515625 -0.0128906 0.0225586 0.0612305 0.0773437 0.0483398 0 -0.0644531 -0.0805664 -0.0999023 -0.0580078 -0.00322266 0.0451172 0.0773437 0.0483398 0.0225586 -0.00322266 -0.0580078 -0.103125 -0.0837891 -0.0515625 0.00966797 0.0193359 0.0483398 0.0483398 0.0386719 0 -0.0580078 -0.116016 -0.0999023 -0.0644531 -0.00644531 0.0290039 0.0612305 0.0483398 0.0483398 -0.00644531 -0.0580078 -0.116016 -0.093457 -0.0805664 -0.00644531 0.0225586 0.0612305 0.0644531 0.0386719 -0.0128906 -0.0644531 -0.103125 -0.093457 -0.0805664 -0.0225586 0.0386719 0.0483398 0.0612305 0.0386719 -0.00644531 -0.0580078 -0.103125 -0.103125 -0.0644531 -0.0225586 0 0.0773437 0.0483398 0.0225586 -0.00322266 -0.0580078 -0.103125 -0.0837891 -0.0515625 0.00966797 0.0193359 0.0483398 0.0483398 0.0386719 0 -0.0580078 -0.116016 -0.0999023 -0.0644531 -0.00644531 0.0290039 0.0612305 0.0483398 0.0483398 -0.00644531 -0.0580078 -0.116016 -0.093457 -0.0805664 -0.00644531 0.0225586 0.0612305 0.0644531 0.0386719 -0.0128906 -0.0644531 -0.103125 -0.093457 -0.0805664 -0.0225586 0.0386719 0.0483398 0.0612305 0.0386719 -0.00644531 -0.0580078 -0.103125 -0.103125 -0.0644531 -0.0225586 0.0386719 0.0773437 0.0773437 0.0451172 -0.0257812 -0.0644531 -0.0999023 -0.093457 -0.0644531 -0.00322266 0.0225586 0.0483398 0.0547852 0.0290039 -0.0128906 -0.0515625 -0.103125 -0.103125 -0.0805664 -0.0128906 0.0225586 0.0612305 0.0547852 0.0483398 -0.00322266 -0.0644531 -0.0999023 -0.093457 -0.0580078 -0.00644531 0.0386719 0.0225586 0.0547852 0.0451172 -0.0128906 -0.0580078 -0.093457 -0.0999023 -0.0805664 -0.00322266 0.0386719 0.0386719 0.0451172 0.0451172 -0.00322266 -0.0515625 -0.0805664 -0.0805664 -0.0515625 -0.0257812 0 0.0773437 0.0773437 0.0451172 -0.0257812 -0.0644531 -0.0999023 -0.093457 -0.0644531 -0.00322266 0.0225586 0.0483398 0.0547852 0.0290039 -0.0128906 -0.0515625 -0.103125 -0.103125 -0.0805664 -0.0128906 0.0225586 0.0612305 0.0547852 0.0483398 -0.00322266 -0.0644531 -0.0999023 -0.093457 -0.0580078 -0.00644531 0.0386719 0.0225586 0.0547852 0.0451172 -0.0128906 -0.0580078 -0.093457 -0.0999023 -0.0805664 -0.00322266 0.0386719 0.0386719 0.0451172 0.0451172 -0.00322266 -0.0515625 -0.0805664 -0.0805664 -0.0515625 -0.0257812 0.0386719 0.0483398 0.0483398 0.0386719 -0.0128906 -0.0515625 -0.093457 -0.0805664 -0.0580078 -0.0257812 0.0225586 0.0612305 0.0612305 0.0451172 -0.00644531 -0.0515625 -0.103125 -0.093457 -0.0580078 -0.00644531 0.0451172 0.0612305 0.0547852 0.0225586 -0.00644531 -0.0515625 -0.093457 -0.093457 -0.0805664 -0.00644531 0.0386719 0.0547852 0.0483398 0.0386719 -0.00322266 -0.0515625 -0.103125 -0.0999023 -0.0741211 -0.0257812 0.0225586 0.0547852 0.0708984 0.0386719 -0.00322266 -0.0644531 -0.093457 -0.093457 -0.0644531 -0.00644531 0 0.0483398 0.0483398 0.0386719 -0.0128906 -0.0515625 -0.093457 -0.0805664 -0.0580078 -0.0257812 0.0225586 0.0612305 0.0612305 0.0451172 -0.00644531 -0.0515625 -0.103125 -0.093457 -0.0580078 -0.00644531 0.0451172 0.0612305 0.0547852 0.0225586 -0.00644531 -0.0515625 -0.093457 -0.093457 -0.0805664 -0.00644531 0.0386719 0.0547852 0.0483398 0.0386719 -0.00322266 -0.0515625 -0.103125 -0.0999023 -0.0741211 -0.0257812 0.0225586 0.0547852 0.0708984 0.0386719 -0.00322266 -0.0644531 -0.093457 -0.093457 -0.0644531 -0.00644531 0.0290039 0.0708984 0.0612305 0.0451172 -0.0128906 -0.0547852 -0.103125 -0.0999023 -0.0644531 -0.0128906 0.0386719 0.0483398 0.0612305 0.0451172 -0.00644531 -0.0515625 -0.093457 -0.103125 -0.0644531 -0.0128906 0.0451172 0.0483398 0.0483398 0.0386719 -0.00644531 -0.0515625 -0.0999023 -0.093457 -0.0644531 0 0.0225586 0.0612305 0.0386719 0.0386719 -0.00644531 -0.0547852 -0.103125 -0.0805664 -0.0805664 -0.0128906 0.0225586 0.0483398 0.0773437 0.0483398 -0.00644531 -0.0580078 -0.093457 -0.0837891 -0.0515625 -0.0225586 0 0.0708984 0.0612305 0.0451172 -0.0128906 -0.0547852 -0.103125 -0.0999023 -0.0644531 -0.0128906 0.0386719 0.0483398 0.0612305 0.0451172 -0.00644531 -0.0515625 -0.093457 -0.103125 -0.0644531 -0.0128906 0.0451172 0.0483398 0.0483398 0.0386719 -0.00644531 -0.0515625 -0.0999023 -0.093457 -0.0644531 0 0.0225586 0.0612305 0.0386719 0.0386719 -0.00644531 -0.0547852 -0.103125 -0.0805664 -0.0805664 -0.0128906 0.0225586 0.0483398 0.0773437 0.0483398 -0.00644531 -0.0580078 -0.093457 -0.0837891 -0.0515625 -0.0225586 0.00966797 0.0773437 0.0612305 0.0386719 -0.0128906 -0.0580078 -0.0999023 -0.093457 -0.0741211 -0.00322266 0.0386719 0.0483398 0.0612305 0.0451172 -0.0128906 -0.0515625 -0.093457 -0.0999023 -0.0580078 -0.0128906 0.0225586 0.0612305 0.0547852 0.0451172 -0.00322266 -0.0805664 -0.0999023 -0.0805664 -0.0644531 -0.0257812 0.0225586 0.0547852 0.0547852 0.0386719 -0.00322266 -0.0483398 -0.0999023 -0.0999023 -0.0805664 -0.0257812 0.0290039 0.0612305 0.0547852 0.0290039 -0.00644531 -0.0515625 -0.093457 -0.093457 -0.0644531 -0.0128906 0 0.0773437 0.0612305 0.0386719 -0.0128906 -0.0580078 -0.0999023 -0.093457 -0.0741211 -0.00322266 0.0386719 0.0483398 0.0612305 0.0451172 -0.0128906 -0.0515625 -0.093457 -0.0999023 -0.0580078 -0.0128906 0.0225586 0.0612305 0.0547852 0.0451172 -0.00322266 -0.0805664 -0.0999023 -0.0805664 -0.0644531 -0.0257812 0.0225586 0.0547852 0.0547852 0.0386719 -0.00322266 -0.0483398 -0.0999023 -0.0999023 -0.0805664 -0.0257812 0.0290039 0.0612305 0.0547852 0.0290039 -0.00644531 -0.0515625 -0.093457 -0.093457 -0.0644531 -0.0128906 0.0386719 0.0612305 0.0773437 0.0225586 -0.00322266 -0.0805664 -0.0999023 -0.093457 -0.0741211 -0.0128906 0.0225586 0.0483398 0.0612305 0.0386719 0 -0.0515625 -0.0999023 -0.103125 -0.0805664 -0.0257812 0.0386719 0.0612305 0.0612305 0.0290039 0 -0.0515625 -0.093457 -0.103125 -0.0805664 -0.00644531 0.0451172 0.0612305 0.0612305 0.0290039 -0.00644531 -0.0580078 -0.093457 -0.0999023 -0.0805664 -0.0257812 0.0225586 0.0612305 0.0547852 0.0386719 -0.00322266 -0.0515625 -0.093457 -0.093457 -0.0805664 -0.0128906 0 0.0612305 0.0773437 0.0225586 -0.00322266 -0.0805664 -0.0999023 -0.093457 -0.0741211 -0.0128906 0.0225586 0.0483398 0.0612305 0.0386719 0 -0.0515625 -0.0999023 -0.103125 -0.0805664 -0.0257812 0.0386719 0.0612305 0.0612305 0.0290039 0 -0.0515625 -0.093457 -0.103125 -0.0805664 -0.00644531 0.0451172 0.0612305 0.0612305 0.0290039 -0.00644531 -0.0580078 -0.093457 -0.0999023 -0.0805664 -0.0257812 0.0225586 0.0612305 0.0547852 0.0386719 -0.00322266 -0.0515625 -0.093457 -0.093457 -0.0805664 -0.0128906 0.0386719 0.0483398 0.0612305 0.0386719 -0.00322266 -0.0483398 -0.093457 -0.0999023 -0.0580078 -0.0257812 0.0225586 0.0483398 0.0612305 0.0483398 -0.0128906 -0.0644531 -0.093457 -0.0837891 -0.0805664 -0.0225586 0.0386719 0.0483398 0.0483398 0.0386719 0 -0.0515625 -0.0999023 -0.093457 -0.0741211 -0.0128906 0.0225586 0.0483398 0.0612305 0.0451172 0 -0.0515625 -0.103125 -0.093457 -0.0741211 -0.0128906 0.0386719 0.0483398 0.0483398 0.0483398 0.00322266 -0.0515625 -0.0805664 -0.0999023 -0.0805664 -0.0257812 0 0.0483398 0.0612305 0.0386719 -0.00322266 -0.0483398 -0.093457 -0.0999023 -0.0580078 -0.0257812 0.0225586 0.0483398 0.0612305 0.0483398 -0.0128906 -0.0644531 -0.093457 -0.0837891 -0.0805664 -0.0225586 0.0386719 0.0483398 0.0483398 0.0386719 0 -0.0515625 -0.0999023 -0.093457 -0.0741211 -0.0128906 0.0225586 0.0483398 0.0612305 0.0451172 0 -0.0515625 -0.103125 -0.093457 -0.0741211 -0.0128906 0.0386719 0.0483398 0.0483398 0.0483398 0.00322266 -0.0515625 -0.0805664 -0.0999023 -0.0805664 -0.0257812 0.0193359 0.0483398 0.0483398 0.0386719 0 -0.0418945 -0.093457 -0.093457 -0.0644531 -0.00644531 0.0386719 0.0483398 0.0612305 0.0386719 -0.0128906 -0.0515625 -0.093457 -0.103125 -0.0805664 -0.0225586 0.0354492 0.0708984 0.0612305 0.0386719 -0.00322266 -0.0515625 -0.0999023 -0.0999023 -0.0644531 -0.0128906 0.0225586 0.0612305 0.0483398 0.0386719 -0.0128906 -0.0515625 -0.093457 -0.0999023 -0.0644531 -0.0322266 0.0225586 0.0547852 0.0483398 0.0451172 -0.00322266 -0.0580078 -0.0999023 -0.0999023 -0.0644531 -0.0225586 0 0.0483398 0.0483398 0.0386719 0 -0.0418945 -0.093457 -0.093457 -0.0644531 -0.00644531 0.0386719 0.0483398 0.0612305 0.0386719 -0.0128906 -0.0515625 -0.093457 -0.103125 -0.0805664 -0.0225586 0.0354492 0.0708984 0.0612305 0.0386719 -0.00322266 -0.0515625 -0.0999023 -0.0999023 -0.0644531 -0.0128906 0.0225586 0.0612305 0.0483398 0.0386719 -0.0128906 -0.0515625 -0.093457 -0.0999023 -0.0644531 -0.0322266 0.0225586 0.0547852 0.0483398 0.0451172 -0.00322266 -0.0580078 -0.0999023 -0.0999023 -0.0644531 -0.0225586 0.0225586 0.0547852 0.0547852 0.0483398 0 -0.0515625 -0.103125 -0.0999023 -0.0644531 -0.0257812 0.0386719 0.0483398 0.0547852 0.0451172 0 -0.0515625 -0.0999023 -0.0805664 -0.0644531 -0.0257812 0.0386719 0.0483398 0.0612305 0.0386719 -0.00322266 -0.0515625 -0.093457 -0.093457 -0.0644531 -0.0128906 0.0290039 0.0547852 0.0612305 0.0483398 0.0193359 -0.0418945 -0.0257812 -0.0515625 -0.0257812 -0.00644531 0.0225586 0.0999023 0.0612305 0.141797 0.0773437 -0.0837891 -0.196582 -0.203027 -0.167578 -0.0483398 0 0.0547852 0.0547852 0.0483398 0 -0.0515625 -0.103125 -0.0999023 -0.0644531 -0.0257812 0.0386719 0.0483398 0.0547852 0.0451172 0 -0.0515625 -0.0999023 -0.0805664 -0.0644531 -0.0257812 0.0386719 0.0483398 0.0612305 0.0386719 -0.00322266 -0.0515625 -0.093457 -0.093457 -0.0644531 -0.0128906 0.0290039 0.0547852 0.0612305 0.0483398 0.0193359 -0.0418945 -0.0257812 -0.0515625 -0.0257812 -0.00644531 0.0225586 0.0999023 0.0612305 0.141797 0.0773437 -0.0837891 -0.196582 -0.203027 -0.167578 -0.0483398 0.0225586 0.0547852 -0.0257812 -0.00644531 -0.196582 -0.183691 -0.196582 0.0225586 -0.203027 -0.116016 0.0708984 0.25459 0.296484 0.348047 0.435059 0.244922 -0.093457 0.0612305 -0.0257812 0.00322266 0.0966797 0.25459 0.235254 0.0902344 -0.0805664 -0.0999023 -0.186914 -0.103125 -0.0128906 -0.0580078 -0.0418945 -0.0128906 -0.0805664 0.0483398 -0.00644531 0 -0.0257812 -0.0805664 0.0547852 0.154687 -0.116016 -0.093457 -0.0418945 0.00966797 0.125684 0.0999023 -0.20625 -0.335156 -0.20625 -0.00322266 0 0.0547852 -0.0257812 -0.00644531 -0.196582 -0.183691 -0.196582 0.0225586 -0.203027 -0.116016 0.0708984 0.25459 0.296484 0.348047 0.435059 0.244922 -0.093457 0.0612305 -0.0257812 0.00322266 0.0966797 0.25459 0.235254 0.0902344 -0.0805664 -0.0999023 -0.186914 -0.103125 -0.0128906 -0.0580078 -0.0418945 -0.0128906 -0.0805664 0.0483398 -0.00644531 0 -0.0257812 -0.0805664 0.0547852 0.154687 -0.116016 -0.093457 -0.0418945 0.00966797 0.125684 0.0999023 -0.20625 -0.335156 -0.20625 -0.00322266 0.0805664 -0.00644531 -0.125684 -0.093457 -0.103125 -0.14502 -0.335156 -0.196582 0.15791 0.309375 0.283594 0.331934 0.331934 0.283594 0.0999023 -0.0515625 -0.103125 -0.167578 -0.14502 -0.0805664 0.0708984 0.00966797 0.0225586 0.0483398 0.00966797 -0.0257812 -0.125684 -0.15791 -0.0741211 -0.0418945 0.0225586 0.0999023 0.0999023 0.0773437 0.00966797 -0.0257812 -0.0547852 -0.0644531 -0.0386719 0 -0.00322266 -0.0257812 0.00966797 0.0225586 -0.0257812 -0.0515625 -0.0805664 -0.103125 -0.14502 -0.0644531 0 -0.00644531 -0.125684 -0.093457 -0.103125 -0.14502 -0.335156 -0.196582 0.15791 0.309375 0.283594 0.331934 0.331934 0.283594 0.0999023 -0.0515625 -0.103125 -0.167578 -0.14502 -0.0805664 0.0708984 0.00966797 0.0225586 0.0483398 0.00966797 -0.0257812 -0.125684 -0.15791 -0.0741211 -0.0418945 0.0225586 0.0999023 0.0999023 0.0773437 0.00966797 -0.0257812 -0.0547852 -0.0644531 -0.0386719 0 -0.00322266 -0.0257812 0.00966797 0.0225586 -0.0257812 -0.0515625 -0.0805664 -0.103125 -0.14502 -0.0644531 -0.0483398 -0.0644531 -0.0483398 -0.0128906 -0.0580078 -0.0805664 -0.116016 -0.10957 -0.0805664 -0.0418945 -0.0128906 -0.00322266 0.00322266 0.00966797 0 -0.0257812 -0.0418945 -0.0805664 -0.0515625 -0.0128906 0.0225586 0.0483398 0.0483398 0.00322266 -0.0257812 -0.0515625 -0.0837891 -0.0805664 -0.0741211 -0.0257812 0.00966797 0.0483398 0.0225586 0.00322266 -0.0128906 -0.0644531 -0.093457 -0.093457 -0.0644531 -0.0322266 0.00322266 0.0483398 0.0483398 0.00966797 -0.0483398 -0.0837891 -0.103125 -0.103125 -0.0805664 -0.0386719 0 -0.0644531 -0.0483398 -0.0128906 -0.0580078 -0.0805664 -0.116016 -0.10957 -0.0805664 -0.0418945 -0.0128906 -0.00322266 0.00322266 0.00966797 0 -0.0257812 -0.0418945 -0.0805664 -0.0515625 -0.0128906 0.0225586 0.0483398 0.0483398 0.00322266 -0.0257812 -0.0515625 -0.0837891 -0.0805664 -0.0741211 -0.0257812 0.00966797 0.0483398 0.0225586 0.00322266 -0.0128906 -0.0644531 -0.093457 -0.093457 -0.0644531 -0.0322266 0.00322266 0.0483398 0.0483398 0.00966797 -0.0483398 -0.0837891 -0.103125 -0.103125 -0.0805664 -0.0386719 0.00966797 0.0386719 0.0451172 0.0386719 -0.0128906 -0.0741211 -0.103125 -0.116016 -0.103125 -0.0257812 0.0193359 0.0612305 0.0483398 0.0193359 -0.0257812 -0.0805664 -0.103125 -0.103125 -0.0902344 -0.0483398 0.00966797 0.0612305 0.0902344 0.0386719 -0.0257812 -0.0741211 -0.128906 -0.116016 -0.0805664 -0.0257812 0.0386719 0.0902344 0.0902344 0.0483398 -0.0128906 -0.0644531 -0.116016 -0.116016 -0.0999023 -0.0257812 0.0451172 0.0805664 0.0773437 0.0386719 -0.0128906 -0.0644531 -0.116016 -0.128906 -0.093457 -0.0257812 0 0.0386719 0.0451172 0.0386719 -0.0128906 -0.0741211 -0.103125 -0.116016 -0.103125 -0.0257812 0.0193359 0.0612305 0.0483398 0.0193359 -0.0257812 -0.0805664 -0.103125 -0.103125 -0.0902344 -0.0483398 0.00966797 0.0612305 0.0902344 0.0386719 -0.0257812 -0.0741211 -0.128906 -0.116016 -0.0805664 -0.0257812 0.0386719 0.0902344 0.0902344 0.0483398 -0.0128906 -0.0644531 -0.116016 -0.116016 -0.0999023 -0.0257812 0.0451172 0.0805664 0.0773437 0.0386719 -0.0128906 -0.0644531 -0.116016 -0.128906 -0.093457 -0.0257812 0.0483398 0.0612305 0.0773437 0.0483398 -0.00644531 -0.0644531 -0.093457 -0.116016 -0.0837891 -0.0322266 0.0225586 0.0483398 0.0483398 0.0225586 -0.0257812 -0.0902344 -0.128906 -0.10957 -0.0837891 -0.0257812 0.0128906 0.0483398 0.0483398 0.0225586 -0.0128906 -0.0515625 -0.093457 -0.093457 -0.0805664 -0.0257812 0.00966797 0.0483398 0.0386719 0.0193359 -0.00644531 -0.0741211 -0.0837891 -0.0837891 -0.0805664 -0.0257812 -0.00322266 0.0386719 0.0386719 0.0225586 -0.00322266 -0.0515625 -0.0741211 -0.0644531 -0.0483398 -0.0128906 0 0.0612305 0.0773437 0.0483398 -0.00644531 -0.0644531 -0.093457 -0.116016 -0.0837891 -0.0322266 0.0225586 0.0483398 0.0483398 0.0225586 -0.0257812 -0.0902344 -0.128906 -0.10957 -0.0837891 -0.0257812 0.0128906 0.0483398 0.0483398 0.0225586 -0.0128906 -0.0515625 -0.093457 -0.093457 -0.0805664 -0.0257812 0.00966797 0.0483398 0.0386719 0.0193359 -0.00644531 -0.0741211 -0.0837891 -0.0837891 -0.0805664 -0.0257812 -0.00322266 0.0386719 0.0386719 0.0225586 -0.00322266 -0.0515625 -0.0741211 -0.0644531 -0.0483398 -0.0128906 0.0193359 0.0483398 0.0483398 0.0225586 -0.00322266 -0.0322266 -0.0644531 -0.0805664 -0.0483398 0.00322266 0.0386719 0.0773437 0.0773437 0.0451172 0.00966797 -0.0418945 -0.0805664 -0.0805664 -0.0580078 -0.00644531 0.0386719 0.0547852 0.0612305 0.0451172 0 -0.0515625 -0.0805664 -0.0837891 -0.0644531 -0.0418945 0.0225586 0.0483398 0.0708984 0.0386719 -0.00322266 -0.0515625 -0.103125 -0.103125 -0.0805664 -0.0257812 0.0225586 0.0773437 0.0773437 0.0451172 -0.00322266 -0.0547852 -0.103125 -0.116016 -0.0805664 -0.0257812 0 0.0483398 0.0483398 0.0225586 -0.00322266 -0.0322266 -0.0644531 -0.0805664 -0.0483398 0.00322266 0.0386719 0.0773437 0.0773437 0.0451172 0.00966797 -0.0418945 -0.0805664 -0.0805664 -0.0580078 -0.00644531 0.0386719 0.0547852 0.0612305 0.0451172 0 -0.0515625 -0.0805664 -0.0837891 -0.0644531 -0.0418945 0.0225586 0.0483398 0.0708984 0.0386719 -0.00322266 -0.0515625 -0.103125 -0.103125 -0.0805664 -0.0257812 0.0225586 0.0773437 0.0773437 0.0451172 -0.00322266 -0.0547852 -0.103125 -0.116016 -0.0805664 -0.0257812 0.0386719 0.0773437 0.0612305 0.0451172 -0.00644531 -0.0644531 -0.103125 -0.103125 -0.0805664 -0.0257812 0.0225586 0.0773437 0.0773437 0.0483398 -0.00644531 -0.0644531 -0.116016 -0.116016 -0.0644531 -0.0257812 0.0225586 0.0612305 0.0773437 0.0451172 -0.0128906 -0.0515625 -0.0999023 -0.103125 -0.0805664 -0.0225586 0.0225586 -0.00322266 0.0386719 -0.00322266 0.00322266 -0.0483398 -0.0805664 -0.0902344 -0.0644531 -0.0225586 0.0225586 0.0612305 0.0773437 0.0386719 -0.00322266 -0.0580078 -0.0999023 -0.103125 -0.0741211 -0.0225586 0 0.0773437 0.0612305 0.0451172 -0.00644531 -0.0644531 -0.103125 -0.103125 -0.0805664 -0.0257812 0.0225586 0.0773437 0.0773437 0.0483398 -0.00644531 -0.0644531 -0.116016 -0.116016 -0.0644531 -0.0257812 0.0225586 0.0612305 0.0773437 0.0451172 -0.0128906 -0.0515625 -0.0999023 -0.103125 -0.0805664 -0.0225586 0.0225586 -0.00322266 0.0386719 -0.00322266 0.00322266 -0.0483398 -0.0805664 -0.0902344 -0.0644531 -0.0225586 0.0225586 0.0612305 0.0773437 0.0386719 -0.00322266 -0.0580078 -0.0999023 -0.103125 -0.0741211 -0.0225586 0.00966797 0.0483398 0.0386719 0.0225586 -0.0257812 -0.0515625 -0.0805664 -0.093457 -0.0644531 -0.0257812 0.00966797 0.0225586 0.0386719 0.0225586 0.00322266 -0.0322266 -0.0805664 -0.0805664 -0.0644531 -0.0257812 0.00966797 0.0483398 0.0483398 0.0290039 -0.00322266 -0.0418945 -0.0644531 -0.0805664 -0.0515625 -0.0257812 0.0225586 0.0483398 0.0708984 0.0386719 -0.00644531 -0.0515625 -0.0805664 -0.0805664 -0.0483398 -0.0418945 0.0193359 0.0612305 0.0612305 0.0225586 0.00966797 -0.0515625 -0.0837891 -0.0805664 -0.0644531 -0.0515625 0 0.0483398 0.0386719 0.0225586 -0.0257812 -0.0515625 -0.0805664 -0.093457 -0.0644531 -0.0257812 0.00966797 0.0225586 0.0386719 0.0225586 0.00322266 -0.0322266 -0.0805664 -0.0805664 -0.0644531 -0.0257812 0.00966797 0.0483398 0.0483398 0.0290039 -0.00322266 -0.0418945 -0.0644531 -0.0805664 -0.0515625 -0.0257812 0.0225586 0.0483398 0.0708984 0.0386719 -0.00644531 -0.0515625 -0.0805664 -0.0805664 -0.0483398 -0.0418945 0.0193359 0.0612305 0.0612305 0.0225586 0.00966797 -0.0515625 -0.0837891 -0.0805664 -0.0644531 -0.0515625 0.0225586 0.0483398 0.0612305 0.0451172 0 -0.0418945 -0.0805664 -0.0837891 -0.0644531 -0.0257812 0.0225586 0.0483398 0.0483398 0.0225586 0.00966797 -0.0418945 -0.0805664 -0.0999023 -0.0805664 -0.0257812 0.0225586 0.0483398 0.0547852 0.0386719 0 -0.0515625 -0.093457 -0.0999023 -0.093457 -0.0418945 0.0193359 0.0483398 0.0451172 0.0290039 -0.00644531 -0.0257812 -0.0805664 -0.0805664 -0.0805664 -0.0418945 0.00966797 0.0451172 0.0483398 0.0193359 -0.0128906 -0.0515625 -0.0805664 -0.0741211 -0.0580078 -0.0257812 0 0.0483398 0.0612305 0.0451172 0 -0.0418945 -0.0805664 -0.0837891 -0.0644531 -0.0257812 0.0225586 0.0483398 0.0483398 0.0225586 0.00966797 -0.0418945 -0.0805664 -0.0999023 -0.0805664 -0.0257812 0.0225586 0.0483398 0.0547852 0.0386719 0 -0.0515625 -0.093457 -0.0999023 -0.093457 -0.0418945 0.0193359 0.0483398 0.0451172 0.0290039 -0.00644531 -0.0257812 -0.0805664 -0.0805664 -0.0805664 -0.0418945 0.00966797 0.0451172 0.0483398 0.0193359 -0.0128906 -0.0515625 -0.0805664 -0.0741211 -0.0580078 -0.0257812 0 0.0225586 0.0225586 0.0193359 0 -0.0257812 -0.0580078 -0.0741211 -0.0580078 -0.0257812 0.00322266 0.0225586 0.0451172 0.0193359 0 -0.0257812 -0.0644531 -0.093457 -0.0644531 -0.0257812 0.0225586 0.0483398 0.0290039 0.0386719 0.00966797 -0.0322266 -0.0902344 -0.0805664 -0.0580078 -0.0257812 0.0193359 0.0386719 0.0483398 0.0386719 -0.00322266 -0.0418945 -0.0837891 -0.0837891 -0.0644531 -0.0128906 0.0225586 0.0483398 0.0483398 0.0386719 -0.00322266 -0.0483398 -0.0805664 -0.093457 -0.0741211 -0.0257812 0 0.0225586 0.0225586 0.0193359 0 -0.0257812 -0.0580078 -0.0741211 -0.0580078 -0.0257812 0.00322266 0.0225586 0.0451172 0.0193359 0 -0.0257812 -0.0644531 -0.093457 -0.0644531 -0.0257812 0.0225586 0.0483398 0.0290039 0.0386719 0.00966797 -0.0322266 -0.0902344 -0.0805664 -0.0580078 -0.0257812 0.0193359 0.0386719 0.0483398 0.0386719 -0.00322266 -0.0418945 -0.0837891 -0.0837891 -0.0644531 -0.0128906 0.0225586 0.0483398 0.0483398 0.0386719 -0.00322266 -0.0483398 -0.0805664 -0.093457 -0.0741211 -0.0257812 0.0193359 0.0483398 0.0483398 0.0225586 -0.00644531 -0.0515625 -0.0805664 -0.0837891 -0.0644531 -0.0257812 0.00322266 0.0612305 0.0708984 0.0225586 -0.00322266 -0.0515625 -0.093457 -0.0837891 -0.0580078 -0.0418945 0.0225586 0.0483398 0.0483398 0.0386719 -0.0128906 -0.0515625 -0.0837891 -0.093457 -0.0580078 -0.0225586 0.0290039 0.0902344 0.0773437 0.0902344 0.0451172 -0.0322266 -0.093457 -0.10957 -0.0805664 -0.0418945 0.00322266 0.00966797 0.00322266 -0.093457 -0.186914 -0.128906 0.00322266 -0.128906 -0.183691 -0.0837891 0 0.0483398 0.0483398 0.0225586 -0.00644531 -0.0515625 -0.0805664 -0.0837891 -0.0644531 -0.0257812 0.00322266 0.0612305 0.0708984 0.0225586 -0.00322266 -0.0515625 -0.093457 -0.0837891 -0.0580078 -0.0418945 0.0225586 0.0483398 0.0483398 0.0386719 -0.0128906 -0.0515625 -0.0837891 -0.093457 -0.0580078 -0.0225586 0.0290039 0.0902344 0.0773437 0.0902344 0.0451172 -0.0322266 -0.093457 -0.10957 -0.0805664 -0.0418945 0.00322266 0.00966797 0.00322266 -0.093457 -0.186914 -0.128906 0.00322266 -0.128906 -0.183691 -0.0837891 -0.232031 -0.299707 -0.14502 -0.0257812 -0.0128906 -0.0322266 -0.167578 0.0999023 0.409277 0.773438 0.61875 0.0773437 -0.0515625 -0.0257812 -0.186914 -0.128906 0.0483398 0.0999023 0.112793 0.0999023 -0.103125 -0.219141 -0.541406 -0.493066 -0.270703 -0.270703 -0.0225586 0.0386719 0.0483398 0.228809 0.283594 0.203027 0.0999023 0.25459 0.244922 0.283594 0.112793 0.0773437 0.0193359 -0.15791 -0.699316 -0.476953 -0.683203 -0.541406 -0.286816 -0.0547852 0.30293 0.576855 0.66709 0.360937 0 -0.299707 -0.14502 -0.0257812 -0.0128906 -0.0322266 -0.167578 0.0999023 0.409277 0.773438 0.61875 0.0773437 -0.0515625 -0.0257812 -0.186914 -0.128906 0.0483398 0.0999023 0.112793 0.0999023 -0.103125 -0.219141 -0.541406 -0.493066 -0.270703 -0.270703 -0.0225586 0.0386719 0.0483398 0.228809 0.283594 0.203027 0.0999023 0.25459 0.244922 0.283594 0.112793 0.0773437 0.0193359 -0.15791 -0.699316 -0.476953 -0.683203 -0.541406 -0.286816 -0.0547852 0.30293 0.576855 0.66709 0.360937 0.451172 0.554297 0.592969 0.409277 0.26748 -0.093457 -0.286816 -0.486621 -0.476953 -0.389941 -0.322266 -0.257812 -0.167578 -0.0128906 -0.0580078 0.0225586 0.0451172 0.0483398 0.0290039 0.0386719 0.0612305 0.0805664 0.0773437 -0.0128906 -0.0580078 -0.183691 -0.228809 -0.183691 -0.128906 -0.00322266 0.112793 0.180469 0.0999023 0.203027 0.228809 0.244922 0.180469 0.125684 0.125684 0.154687 0.164355 0.0999023 0.154687 0.0999023 0.0773437 0.0386719 -0.0128906 -0.0418945 -0.0483398 0 0 0.554297 0.592969 0.409277 0.26748 -0.093457 -0.286816 -0.486621 -0.476953 -0.389941 -0.322266 -0.257812 -0.167578 -0.0128906 -0.0580078 0.0225586 0.0451172 0.0483398 0.0290039 0.0386719 0.0612305 0.0805664 0.0773437 -0.0128906 -0.0580078 -0.183691 -0.228809 -0.183691 -0.128906 -0.00322266 0.112793 0.180469 0.0999023 0.203027 0.228809 0.244922 0.180469 0.125684 0.125684 0.154687 0.164355 0.0999023 0.154687 0.0999023 0.0773437 0.0386719 -0.0128906 -0.0418945 -0.0483398 0 0.0193359 0.0225586 0 -0.0322266 -0.0741211 -0.14502 -0.167578 -0.15791 -0.167578 -0.128906 -0.128906 -0.128906 -0.10957 -0.128906 -0.151465 -0.196582 -0.219141 -0.20625 -0.167578 -0.128906 -0.0515625 -0.0225586 0.0225586 0.00322266 -0.0225586 -0.0257812 -0.0515625 -0.0644531 -0.0515625 -0.0128906 0.0225586 0.0773437 0.0773437 0.00966797 -0.00644531 -0.0418945 -0.0644531 -0.0805664 -0.0515625 -0.0257812 -0.0225586 0.00322266 0 0.00966797 -0.0257812 -0.0644531 -0.0805664 -0.093457 -0.0805664 -0.0418945 0 0.0225586 0 -0.0322266 -0.0741211 -0.14502 -0.167578 -0.15791 -0.167578 -0.128906 -0.128906 -0.128906 -0.10957 -0.128906 -0.151465 -0.196582 -0.219141 -0.20625 -0.167578 -0.128906 -0.0515625 -0.0225586 0.0225586 0.00322266 -0.0225586 -0.0257812 -0.0515625 -0.0644531 -0.0515625 -0.0128906 0.0225586 0.0773437 0.0773437 0.00966797 -0.00644531 -0.0418945 -0.0644531 -0.0805664 -0.0515625 -0.0257812 -0.0225586 0.00322266 0 0.00966797 -0.0257812 -0.0644531 -0.0805664 -0.093457 -0.0805664 -0.0418945 -0.00322266 0.0225586 0.0225586 0.00966797 -0.0257812 -0.0515625 -0.0805664 -0.0837891 -0.0644531 -0.0257812 0.00966797 0.0386719 0.0483398 0.0612305 0.0225586 -0.0225586 -0.0515625 -0.0515625 -0.0322266 -0.00644531 0.0225586 0.0483398 0.0612305 0.0386719 -0.00322266 -0.0322266 -0.0805664 -0.093457 -0.0515625 -0.0161133 0.0193359 0.0483398 0.0451172 0.0290039 0 -0.0515625 -0.0805664 -0.0999023 -0.0805664 -0.0257812 0.0290039 0.0612305 0.0483398 0.0386719 0.00966797 -0.0515625 -0.0837891 -0.093457 -0.0741211 -0.0257812 0 0.0225586 0.0225586 0.00966797 -0.0257812 -0.0515625 -0.0805664 -0.0837891 -0.0644531 -0.0257812 0.00966797 0.0386719 0.0483398 0.0612305 0.0225586 -0.0225586 -0.0515625 -0.0515625 -0.0322266 -0.00644531 0.0225586 0.0483398 0.0612305 0.0386719 -0.00322266 -0.0322266 -0.0805664 -0.093457 -0.0515625 -0.0161133 0.0193359 0.0483398 0.0451172 0.0290039 0 -0.0515625 -0.0805664 -0.0999023 -0.0805664 -0.0257812 0.0290039 0.0612305 0.0483398 0.0386719 0.00966797 -0.0515625 -0.0837891 -0.093457 -0.0741211 -0.0257812 0.00966797 0.0483398 0.0483398 0.0386719 0.00966797 -0.0257812 -0.0644531 -0.0837891 -0.0805664 -0.0418945 -0.00322266 0.0483398 0.0483398 0.0193359 -0.0225586 -0.0515625 -0.0805664 -0.0837891 -0.0741211 -0.0257812 0.00322266 -0.00644531 0 0.0451172 -0.00644531 -0.0515625 -0.0805664 -0.0805664 -0.0580078 -0.0418945 0 0.0193359 0.0225586 0.00966797 -0.0128906 -0.0322266 -0.0644531 -0.0805664 -0.0418945 -0.0257812 0.00966797 0.0193359 0.0193359 0.00322266 -0.0128906 -0.0418945 -0.0515625 -0.0741211 -0.0580078 -0.0418945 0 0.0483398 0.0483398 0.0386719 0.00966797 -0.0257812 -0.0644531 -0.0837891 -0.0805664 -0.0418945 -0.00322266 0.0483398 0.0483398 0.0193359 -0.0225586 -0.0515625 -0.0805664 -0.0837891 -0.0741211 -0.0257812 0.00322266 -0.00644531 0 0.0451172 -0.00644531 -0.0515625 -0.0805664 -0.0805664 -0.0580078 -0.0418945 0 0.0193359 0.0225586 0.00966797 -0.0128906 -0.0322266 -0.0644531 -0.0805664 -0.0418945 -0.0257812 0.00966797 0.0193359 0.0193359 0.00322266 -0.0128906 -0.0418945 -0.0515625 -0.0741211 -0.0580078 -0.0418945 0 0.0193359 0.0225586 0 -0.0128906 -0.0418945 -0.0515625 -0.0580078 -0.0418945 -0.0257812 0.00322266 0.0386719 0.0451172 0.0225586 0.00966797 -0.0515625 -0.0547852 -0.0515625 -0.0418945 -0.0257812 -0.00644531 0.0290039 0.0290039 0.00966797 -0.00322266 -0.0257812 -0.0418945 -0.0515625 -0.0418945 -0.0257812 0 0.0225586 0.0225586 0.0225586 -0.00322266 -0.0257812 -0.0741211 -0.0644531 -0.0322266 0.0225586 0.00966797 0.0225586 0.0483398 0.0483398 -0.00322266 -0.00322266 -0.0257812 0.00966797 0.0386719 0.0708984 0 0.0193359 0.0225586 0 -0.0128906 -0.0418945 -0.0515625 -0.0580078 -0.0418945 -0.0257812 0.00322266 0.0386719 0.0451172 0.0225586 0.00966797 -0.0515625 -0.0547852 -0.0515625 -0.0418945 -0.0257812 -0.00644531 0.0290039 0.0290039 0.00966797 -0.00322266 -0.0257812 -0.0418945 -0.0515625 -0.0418945 -0.0257812 0 0.0225586 0.0225586 0.0225586 -0.00322266 -0.0257812 -0.0741211 -0.0644531 -0.0322266 0.0225586 0.00966797 0.0225586 0.0483398 0.0483398 -0.00322266 -0.00322266 -0.0257812 0.00966797 0.0386719 0.0708984 0.112793 0.112793 0.112793 0.0805664 0.0773437 0.0290039 -0.00322266 -0.0128906 -0.0128906 0 0.0193359 0.0451172 0.0225586 0.0193359 -0.00644531 -0.0418945 -0.0515625 -0.0805664 -0.0515625 -0.0515625 -0.0128906 -0.00322266 0.0225586 0.00322266 -0.00322266 -0.0418945 -0.0805664 -0.0837891 -0.0644531 -0.0515625 -0.0128906 0 0.00322266 -0.00644531 -0.0257812 -0.0515625 -0.0741211 -0.0805664 -0.0644531 -0.0483398 -0.0128906 0.00966797 0.0225586 0 -0.0128906 -0.0322266 -0.0515625 -0.0644531 -0.0741211 -0.0257812 0 0.112793 0.112793 0.0805664 0.0773437 0.0290039 -0.00322266 -0.0128906 -0.0128906 0 0.0193359 0.0451172 0.0225586 0.0193359 -0.00644531 -0.0418945 -0.0515625 -0.0805664 -0.0515625 -0.0515625 -0.0128906 -0.00322266 0.0225586 0.00322266 -0.00322266 -0.0418945 -0.0805664 -0.0837891 -0.0644531 -0.0515625 -0.0128906 0 0.00322266 -0.00644531 -0.0257812 -0.0515625 -0.0741211 -0.0805664 -0.0644531 -0.0483398 -0.0128906 0.00966797 0.0225586 0 -0.0128906 -0.0322266 -0.0515625 -0.0644531 -0.0741211 -0.0257812 -0.00322266 0.0225586 0.0225586 0.0193359 -0.00322266 -0.0386719 -0.0644531 -0.0644531 -0.0515625 -0.0515625 0.00322266 0 0.00966797 -0.0128906 -0.0128906 -0.0257812 -0.0805664 -0.0805664 -0.0515625 -0.0515625 -0.00322266 0.0225586 -0.00322266 0.00966797 -0.0128906 -0.0322266 -0.0644531 -0.0644531 -0.0515625 -0.0257812 0 0.0225586 0.0225586 0.00322266 -0.00322266 -0.0257812 -0.0580078 -0.0644531 -0.0418945 -0.0257812 0.00322266 0.0225586 0.0225586 0.0225586 0 -0.0128906 -0.0580078 -0.0644531 -0.0386719 -0.0257812 0 0.0225586 0.0225586 0.0193359 -0.00322266 -0.0386719 -0.0644531 -0.0644531 -0.0515625 -0.0515625 0.00322266 0 0.00966797 -0.0128906 -0.0128906 -0.0257812 -0.0805664 -0.0805664 -0.0515625 -0.0515625 -0.00322266 0.0225586 -0.00322266 0.00966797 -0.0128906 -0.0322266 -0.0644531 -0.0644531 -0.0515625 -0.0257812 0 0.0225586 0.0225586 0.00322266 -0.00322266 -0.0257812 -0.0580078 -0.0644531 -0.0418945 -0.0257812 0.00322266 0.0225586 0.0225586 0.0225586 0 -0.0128906 -0.0580078 -0.0644531 -0.0386719 -0.0257812 0.00322266 0.0225586 0.0386719 0.0225586 0 -0.0257812 -0.0418945 -0.0644531 -0.0515625 -0.0257812 0.00322266 0.0193359 0.0386719 0.0225586 -0.00322266 -0.0257812 -0.0644531 -0.0805664 -0.0515625 -0.0257812 0 0.0225586 0.0225586 0.0225586 0 -0.0257812 -0.0515625 -0.0580078 -0.0580078 -0.0225586 0.00322266 0.0225586 0.00966797 0.00966797 0 -0.0257812 -0.0515625 -0.0515625 -0.0515625 -0.0257812 -0.00644531 0.00966797 0.0290039 0.00966797 0.00966797 -0.0418945 -0.0483398 -0.0644531 -0.0515625 -0.0257812 0 0.0225586 0.0386719 0.0225586 0 -0.0257812 -0.0418945 -0.0644531 -0.0515625 -0.0257812 0.00322266 0.0193359 0.0386719 0.0225586 -0.00322266 -0.0257812 -0.0644531 -0.0805664 -0.0515625 -0.0257812 0 0.0225586 0.0225586 0.0225586 0 -0.0257812 -0.0515625 -0.0580078 -0.0580078 -0.0225586 0.00322266 0.0225586 0.00966797 0.00966797 0 -0.0257812 -0.0515625 -0.0515625 -0.0515625 -0.0257812 -0.00644531 0.00966797 0.0290039 0.00966797 0.00966797 -0.0418945 -0.0483398 -0.0644531 -0.0515625 -0.0257812 -0.00322266 0.0225586 0.0225586 0.0225586 0.00322266 -0.0418945 -0.0515625 -0.0741211 -0.0515625 -0.0257812 0 0.00966797 0.0225586 0.00966797 0 -0.0257812 -0.0547852 -0.0580078 -0.0515625 -0.0257812 0 0.0193359 0.0225586 0.00966797 0.00322266 -0.0386719 -0.0547852 -0.0515625 -0.0644531 -0.0257812 -0.00322266 0.0225586 0.0290039 0.0193359 -0.00322266 -0.0322266 -0.0515625 -0.0515625 -0.0483398 -0.0483398 -0.00322266 0.00966797 0.0225586 0.0225586 -0.00322266 -0.0257812 -0.0515625 -0.0644531 -0.0515625 -0.0257812 0 0.0225586 0.0225586 0.0225586 0.00322266 -0.0418945 -0.0515625 -0.0741211 -0.0515625 -0.0257812 0 0.00966797 0.0225586 0.00966797 0 -0.0257812 -0.0547852 -0.0580078 -0.0515625 -0.0257812 0 0.0193359 0.0225586 0.00966797 0.00322266 -0.0386719 -0.0547852 -0.0515625 -0.0644531 -0.0257812 -0.00322266 0.0225586 0.0290039 0.0193359 -0.00322266 -0.0322266 -0.0515625 -0.0515625 -0.0483398 -0.0483398 -0.00322266 0.00966797 0.0225586 0.0225586 -0.00322266 -0.0257812 -0.0515625 -0.0644531 -0.0515625 -0.0257812 0.00322266 0.0193359 0.0225586 0.00966797 0.00322266 -0.0225586 -0.0418945 -0.0580078 -0.0547852 -0.0257812 -0.00644531 0.0225586 0.0193359 0.00966797 -0.00322266 -0.0257812 -0.0483398 -0.0580078 -0.0515625 -0.0322266 0 0.0225586 0.0225586 0.00966797 0 -0.0257812 -0.0515625 -0.0580078 -0.0515625 -0.0257812 0.00322266 0.0225586 0.0225586 0.0225586 0.00322266 -0.0257812 -0.0580078 -0.0644531 -0.0515625 -0.0322266 0.00322266 0.0225586 0.0386719 0.00966797 -0.00322266 -0.0257812 -0.0515625 -0.0644531 -0.0418945 -0.0257812 0 0.0193359 0.0225586 0.00966797 0.00322266 -0.0225586 -0.0418945 -0.0580078 -0.0547852 -0.0257812 -0.00644531 0.0225586 0.0193359 0.00966797 -0.00322266 -0.0257812 -0.0483398 -0.0580078 -0.0515625 -0.0322266 0 0.0225586 0.0225586 0.00966797 0 -0.0257812 -0.0515625 -0.0580078 -0.0515625 -0.0257812 0.00322266 0.0225586 0.0225586 0.0225586 0.00322266 -0.0257812 -0.0580078 -0.0644531 -0.0515625 -0.0322266 0.00322266 0.0225586 0.0386719 0.00966797 -0.00322266 -0.0257812 -0.0515625 -0.0644531 -0.0418945 -0.0257812 -0.00644531 0.0225586 0.0225586 0.0225586 0 -0.0225586 -0.0515625 -0.0644531 -0.0483398 -0.0225586 0.00322266 0.0225586 0.0225586 0.00966797 0.00322266 -0.0257812 -0.0515625 -0.0644531 -0.0515625 -0.0257812 0 0.0225586 0.0386719 0.00966797 0.00966797 -0.0257812 -0.0515625 -0.0547852 -0.0580078 -0.0483398 0.00322266 0.0225586 0.0483398 0.00966797 -0.0128906 -0.0418945 -0.0741211 -0.0644531 -0.0644531 -0.0257812 0 0.0193359 0.0225586 0.0225586 0 -0.0418945 -0.0580078 -0.0644531 -0.0515625 -0.0257812 0 0.0225586 0.0225586 0.0225586 0 -0.0225586 -0.0515625 -0.0644531 -0.0483398 -0.0225586 0.00322266 0.0225586 0.0225586 0.00966797 0.00322266 -0.0257812 -0.0515625 -0.0644531 -0.0515625 -0.0257812 0 0.0225586 0.0386719 0.00966797 0.00966797 -0.0257812 -0.0515625 -0.0547852 -0.0580078 -0.0483398 0.00322266 0.0225586 0.0483398 0.00966797 -0.0128906 -0.0418945 -0.0741211 -0.0644531 -0.0644531 -0.0257812 0 0.0193359 0.0225586 0.0225586 0 -0.0418945 -0.0580078 -0.0644531 -0.0515625 -0.0257812 -0.00322266 0.0225586 0.0225586 0.00322266 -0.00322266 -0.0257812 -0.0515625 -0.0644531 -0.0515625 -0.0225586 -0.00322266 0.0225586 0.00966797 0.0225586 0.00322266 -0.0257812 -0.0515625 -0.0580078 -0.0644531 -0.0257812 0.00322266 0.00966797 0.0225586 0.00966797 -0.00322266 -0.0257812 -0.0580078 -0.0515625 -0.0483398 -0.0418945 -0.00322266 0.00966797 0.0225586 0.0225586 0.00322266 -0.00322266 -0.0322266 -0.0483398 -0.0418945 0.00322266 0.0386719 0.0386719 0.0193359 -0.0225586 -0.0515625 -0.0805664 -0.0805664 -0.0483398 -0.00322266 0 0 0.0225586 0.0225586 0.00322266 -0.00322266 -0.0257812 -0.0515625 -0.0644531 -0.0515625 -0.0225586 -0.00322266 0.0225586 0.00966797 0.0225586 0.00322266 -0.0257812 -0.0515625 -0.0580078 -0.0644531 -0.0257812 0.00322266 0.00966797 0.0225586 0.00966797 -0.00322266 -0.0257812 -0.0580078 -0.0515625 -0.0483398 -0.0418945 -0.00322266 0.00966797 0.0225586 0.0225586 0.00322266 -0.00322266 -0.0322266 -0.0483398 -0.0418945 0.00322266 0.0386719 0.0386719 0.0193359 -0.0225586 -0.0515625 -0.0805664 -0.0805664 -0.0483398 -0.00322266 0 0.0193359 0.0483398 0.0290039 -0.0257812 -0.0805664 -0.116016 -0.128906 -0.135352 -0.0515625 0.0805664 0.0966797 0.0805664 0.0773437 0.0386719 -0.00322266 -0.125684 -0.219141 -0.232031 -0.257812 -0.257812 -0.0644531 -0.0322266 0.0290039 0.164355 0.25459 0.244922 0.228809 -0.125684 -0.167578 -0.0257812 0.112793 0.125684 0.228809 -0.650977 -0.599414 -0.76377 -0.093457 -0.770215 -0.20625 0.46084 0.67998 0.489844 0.708984 0.783105 0.451172 0.180469 0.244922 0.309375 0.296484 0.193359 0 0.0483398 0.0290039 -0.0257812 -0.0805664 -0.116016 -0.128906 -0.135352 -0.0515625 0.0805664 0.0966797 0.0805664 0.0773437 0.0386719 -0.00322266 -0.125684 -0.219141 -0.232031 -0.257812 -0.257812 -0.0644531 -0.0322266 0.0290039 0.164355 0.25459 0.244922 0.228809 -0.125684 -0.167578 -0.0257812 0.112793 0.125684 0.228809 -0.650977 -0.599414 -0.76377 -0.093457 -0.770215 -0.20625 0.46084 0.67998 0.489844 0.708984 0.783105 0.451172 0.180469 0.244922 0.309375 0.296484 0.193359 -0.4125 -0.257812 -0.0257812 -0.505957 -0.219141 -0.25459 -0.232031 0.164355 0.0773437 0.112793 0.283594 0.409277 0.538184 0.309375 0.25459 -0.00644531 -0.505957 -0.670312 -0.219141 0.112793 0.203027 0.225586 0.309375 0.164355 0.141797 -0.0644531 -0.232031 -0.373828 -0.383496 -0.312598 -0.299707 -0.20625 -0.14502 -0.103125 -0.0999023 -0.103125 -0.186914 -0.183691 -0.15791 -0.093457 -0.0805664 -0.0257812 0.00966797 0.0225586 0.0290039 -0.0225586 -0.0225586 -0.0257812 -0.0128906 0.0193359 0 -0.257812 -0.0257812 -0.505957 -0.219141 -0.25459 -0.232031 0.164355 0.0773437 0.112793 0.283594 0.409277 0.538184 0.309375 0.25459 -0.00644531 -0.505957 -0.670312 -0.219141 0.112793 0.203027 0.225586 0.309375 0.164355 0.141797 -0.0644531 -0.232031 -0.373828 -0.383496 -0.312598 -0.299707 -0.20625 -0.14502 -0.103125 -0.0999023 -0.103125 -0.186914 -0.183691 -0.15791 -0.093457 -0.0805664 -0.0257812 0.00966797 0.0225586 0.0290039 -0.0225586 -0.0225586 -0.0257812 -0.0128906 0.0193359 0 0.0225586 0.0386719 0 -0.0257812 -0.0225586 -0.0418945 -0.0515625 -0.0128906 -0.00644531 -0.0418945 0.00322266 0.00966797 0.00322266 -0.0128906 -0.0257812 -0.0483398 -0.0515625 -0.0515625 -0.0418945 0.00322266 0.0451172 -0.00322266 -0.00322266 -0.0257812 -0.0257812 -0.0580078 -0.103125 -0.103125 -0.0805664 -0.0257812 0.00322266 0 -0.0257812 -0.00322266 -0.0257812 -0.0515625 -0.0483398 -0.0418945 -0.0257812 -0.0225586 0.0225586 0.0225586 -0.0128906 -0.0483398 -0.0257812 -0.0515625 -0.0580078 -0.0515625 -0.0418945 0 0.0225586 0.0386719 0 -0.0257812 -0.0225586 -0.0418945 -0.0515625 -0.0128906 -0.00644531 -0.0418945 0.00322266 0.00966797 0.00322266 -0.0128906 -0.0257812 -0.0483398 -0.0515625 -0.0515625 -0.0418945 0.00322266 0.0451172 -0.00322266 -0.00322266 -0.0257812 -0.0257812 -0.0580078 -0.103125 -0.103125 -0.0805664 -0.0257812 0.00322266 0 -0.0257812 -0.00322266 -0.0257812 -0.0515625 -0.0483398 -0.0418945 -0.0257812 -0.0225586 0.0225586 0.0225586 -0.0128906 -0.0483398 -0.0257812 -0.0515625 -0.0580078 -0.0515625 -0.0418945 0 0 0.0225586 0.0193359 -0.00644531 -0.0257812 -0.0805664 -0.0580078 -0.0515625 -0.0225586 -0.00322266 0.0225586 0.0386719 0.0225586 0.00322266 -0.0128906 -0.0386719 -0.0644531 -0.0418945 -0.00644531 0.0225586 0.0612305 0.0805664 0.0773437 0.0386719 0.00966797 -0.0225586 -0.0418945 -0.0257812 0 0.0386719 0.0612305 0.0773437 0.0483398 0.0193359 -0.00322266 -0.0418945 -0.0515625 -0.0418945 -0.0257812 -0.00322266 0.0290039 0.0483398 0.0451172 -0.00644531 -0.0418945 -0.0644531 -0.0805664 -0.0644531 -0.0418945 0 0 0.0225586 0.0193359 -0.00644531 -0.0257812 -0.0805664 -0.0580078 -0.0515625 -0.0225586 -0.00322266 0.0225586 0.0386719 0.0225586 0.00322266 -0.0128906 -0.0386719 -0.0644531 -0.0418945 -0.00644531 0.0225586 0.0612305 0.0805664 0.0773437 0.0386719 0.00966797 -0.0225586 -0.0418945 -0.0257812 0 0.0386719 0.0612305 0.0773437 0.0483398 0.0193359 -0.00322266 -0.0418945 -0.0515625 -0.0418945 -0.0257812 -0.00322266 0.0290039 0.0483398 0.0451172 -0.00644531 -0.0418945 -0.0644531 -0.0805664 -0.0644531 -0.0418945 0.00966797 0.0483398 0.0483398 0.0290039 -0.0128906 -0.0257812 -0.0741211 -0.0805664 -0.0515625 -0.0257812 0 0.0483398 0.0547852 0.0451172 0 -0.0418945 -0.0515625 -0.0805664 -0.0741211 -0.0257812 0.0193359 0.0193359 0 0.0225586 -0.00322266 -0.0483398 -0.0741211 -0.0805664 -0.0644531 -0.0483398 -0.0225586 -0.0128906 -0.00322266 -0.00644531 -0.0322266 -0.0483398 -0.0580078 -0.0644531 -0.0580078 -0.0515625 -0.0515625 -0.00322266 -0.0225586 0.00966797 -0.00322266 -0.0257812 -0.0580078 -0.0547852 -0.0644531 -0.0418945 0 0.0483398 0.0483398 0.0290039 -0.0128906 -0.0257812 -0.0741211 -0.0805664 -0.0515625 -0.0257812 0 0.0483398 0.0547852 0.0451172 0 -0.0418945 -0.0515625 -0.0805664 -0.0741211 -0.0257812 0.0193359 0.0193359 0 0.0225586 -0.00322266 -0.0483398 -0.0741211 -0.0805664 -0.0644531 -0.0483398 -0.0225586 -0.0128906 -0.00322266 -0.00644531 -0.0322266 -0.0483398 -0.0580078 -0.0644531 -0.0580078 -0.0515625 -0.0515625 -0.00322266 -0.0225586 0.00966797 -0.00322266 -0.0257812 -0.0580078 -0.0547852 -0.0644531 -0.0418945 -0.0128906 -0.0128906 0.00966797 0.0225586 -0.00322266 -0.0225586 -0.0515625 -0.0515625 -0.0580078 -0.0418945 0 0.00966797 0.0225586 0.00322266 -0.0257812 -0.0257812 -0.0515625 -0.0805664 -0.0515625 -0.0257812 -0.00644531 0.00966797 0.0225586 0.00966797 -0.00322266 -0.0257812 -0.0418945 -0.0580078 -0.0580078 -0.0483398 0 -0.00644531 0.0225586 0.00966797 0 -0.0418945 -0.0515625 -0.0547852 -0.0515625 -0.0257812 -0.0128906 0.00966797 0.00966797 0.00322266 -0.00644531 -0.0128906 -0.0257812 -0.0257812 -0.0257812 -0.00322266 0 -0.0128906 0.00966797 0.0225586 -0.00322266 -0.0225586 -0.0515625 -0.0515625 -0.0580078 -0.0418945 0 0.00966797 0.0225586 0.00322266 -0.0257812 -0.0257812 -0.0515625 -0.0805664 -0.0515625 -0.0257812 -0.00644531 0.00966797 0.0225586 0.00966797 -0.00322266 -0.0257812 -0.0418945 -0.0580078 -0.0580078 -0.0483398 0 -0.00644531 0.0225586 0.00966797 0 -0.0418945 -0.0515625 -0.0547852 -0.0515625 -0.0257812 -0.0128906 0.00966797 0.00966797 0.00322266 -0.00644531 -0.0128906 -0.0257812 -0.0257812 -0.0257812 -0.00322266 0 0.00966797 0.0386719 0.0128906 -0.0128906 -0.0257812 -0.0257812 -0.0418945 -0.0257812 -0.0257812 -0.00644531 0 0.0193359 0 -0.00644531 0 -0.0128906 -0.0257812 -0.0483398 -0.0225586 -0.0257812 0 0.00966797 0.00966797 0 -0.00322266 -0.00644531 -0.0128906 -0.0257812 -0.0128906 -0.0225586 -0.0257812 0.00322266 0.00966797 0 -0.0128906 -0.0128906 -0.0225586 -0.0128906 -0.0128906 -0.0128906 -0.00322266 -0.00322266 0.00322266 -0.0257812 -0.0128906 -0.0128906 -0.0386719 -0.0483398 -0.0257812 0 0.00966797 0.0386719 0.0128906 -0.0128906 -0.0257812 -0.0257812 -0.0418945 -0.0257812 -0.0257812 -0.00644531 0 0.0193359 0 -0.00644531 0 -0.0128906 -0.0257812 -0.0483398 -0.0225586 -0.0257812 0 0.00966797 0.00966797 0 -0.00322266 -0.00644531 -0.0128906 -0.0257812 -0.0128906 -0.0225586 -0.0257812 0.00322266 0.00966797 0 -0.0128906 -0.0128906 -0.0225586 -0.0128906 -0.0128906 -0.0128906 -0.00322266 -0.00322266 0.00322266 -0.0257812 -0.0128906 -0.0128906 -0.0386719 -0.0483398 -0.0257812 -0.0128906 -0.00644531 -0.0128906 -0.00322266 -0.00644531 -0.00644531 -0.0128906 -0.0418945 -0.0322266 -0.0257812 -0.0128906 -0.00644531 -0.00644531 -0.0128906 -0.0128906 -0.0128906 -0.0225586 -0.0257812 -0.0257812 -0.0257812 -0.0128906 -0.00644531 -0.0128906 -0.00644531 0 -0.00322266 -0.0322266 -0.0483398 -0.0418945 -0.0257812 -0.0257812 -0.0225586 -0.00644531 0 0.00966797 0 -0.0128906 -0.0483398 -0.0418945 -0.0483398 -0.0225586 -0.00644531 -0.00322266 -0.00322266 -0.0128906 -0.0128906 -0.0257812 -0.0257812 -0.0257812 -0.0128906 0 -0.00644531 -0.0128906 -0.00322266 -0.00644531 -0.00644531 -0.0128906 -0.0418945 -0.0322266 -0.0257812 -0.0128906 -0.00644531 -0.00644531 -0.0128906 -0.0128906 -0.0128906 -0.0225586 -0.0257812 -0.0257812 -0.0257812 -0.0128906 -0.00644531 -0.0128906 -0.00644531 0 -0.00322266 -0.0322266 -0.0483398 -0.0418945 -0.0257812 -0.0257812 -0.0225586 -0.00644531 0 0.00966797 0 -0.0128906 -0.0483398 -0.0418945 -0.0483398 -0.0225586 -0.00644531 -0.00322266 -0.00322266 -0.0128906 -0.0128906 -0.0257812 -0.0257812 -0.0257812 -0.0128906 -0.0128906 -0.0128906 -0.0128906 0 0.00322266 -0.00322266 -0.0128906 -0.0257812 -0.0257812 -0.0128906 -0.00322266 -0.00322266 0.00966797 0.00966797 0.00966797 0.00322266 -0.0257812 -0.0257812 -0.0128906 -0.0257812 -0.0128906 0.00322266 0.00966797 0 0.00966797 0 -0.0225586 -0.0257812 -0.0257812 -0.0257812 -0.00322266 0 0.0193359 0.00966797 0 -0.0128906 -0.0257812 -0.0257812 -0.0257812 -0.0257812 -0.0257812 -0.00322266 0.00966797 0 -0.0128906 -0.00644531 -0.0257812 -0.0418945 -0.0225586 -0.0418945 0 -0.0128906 -0.0128906 0 0.00322266 -0.00322266 -0.0128906 -0.0257812 -0.0257812 -0.0128906 -0.00322266 -0.00322266 0.00966797 0.00966797 0.00966797 0.00322266 -0.0257812 -0.0257812 -0.0128906 -0.0257812 -0.0128906 0.00322266 0.00966797 0 0.00966797 0 -0.0225586 -0.0257812 -0.0257812 -0.0257812 -0.00322266 0 0.0193359 0.00966797 0 -0.0128906 -0.0257812 -0.0257812 -0.0257812 -0.0257812 -0.0257812 -0.00322266 0.00966797 0 -0.0128906 -0.00644531 -0.0257812 -0.0418945 -0.0225586 -0.0418945 -0.0257812 -0.0257812 -0.0225586 -0.0128906 0 -0.00644531 -0.00644531 -0.0257812 -0.0257812 -0.0418945 -0.0257812 -0.0257812 -0.0128906 -0.0128906 -0.00644531 -0.00322266 -0.0128906 -0.0257812 -0.0322266 -0.0322266 -0.0257812 -0.0257812 -0.00644531 -0.00644531 -0.00644531 0 -0.00322266 -0.0257812 -0.0257812 -0.0257812 -0.0128906 -0.0257812 -0.00644531 0.00322266 -0.00644531 -0.0128906 -0.0128906 -0.0257812 -0.0257812 -0.0418945 -0.0257812 -0.0128906 -0.0225586 -0.00644531 -0.0128906 -0.00322266 -0.0128906 -0.0225586 -0.0257812 -0.0257812 0 -0.0257812 -0.0225586 -0.0128906 0 -0.00644531 -0.00644531 -0.0257812 -0.0257812 -0.0418945 -0.0257812 -0.0257812 -0.0128906 -0.0128906 -0.00644531 -0.00322266 -0.0128906 -0.0257812 -0.0322266 -0.0322266 -0.0257812 -0.0257812 -0.00644531 -0.00644531 -0.00644531 0 -0.00322266 -0.0257812 -0.0257812 -0.0257812 -0.0128906 -0.0257812 -0.00644531 0.00322266 -0.00644531 -0.0128906 -0.0128906 -0.0257812 -0.0257812 -0.0418945 -0.0257812 -0.0128906 -0.0225586 -0.00644531 -0.0128906 -0.00322266 -0.0128906 -0.0225586 -0.0257812 -0.0257812 -0.0128906 -0.00644531 -0.00644531 -0.00644531 -0.00322266 -0.00322266 -0.0225586 -0.0257812 -0.0257812 -0.0257812 -0.0257812 -0.0257812 -0.00644531 0 0 -0.00322266 -0.0128906 -0.0225586 -0.0257812 -0.0257812 -0.0128906 -0.00322266 -0.00322266 -0.00322266 0.00966797 -0.0128906 -0.0128906 -0.0225586 -0.0257812 -0.0257812 -0.0257812 -0.0257812 -0.0128906 0 0.00966797 -0.00644531 -0.00644531 -0.0225586 -0.0257812 -0.0257812 -0.0257812 -0.0128906 -0.00322266 0 0 -0.00322266 -0.0128906 -0.0225586 -0.0225586 -0.0257812 0 -0.00644531 -0.00644531 -0.00644531 -0.00322266 -0.00322266 -0.0225586 -0.0257812 -0.0257812 -0.0257812 -0.0257812 -0.0257812 -0.00644531 0 0 -0.00322266 -0.0128906 -0.0225586 -0.0257812 -0.0257812 -0.0128906 -0.00322266 -0.00322266 -0.00322266 0.00966797 -0.0128906 -0.0128906 -0.0225586 -0.0257812 -0.0257812 -0.0257812 -0.0257812 -0.0128906 0 0.00966797 -0.00644531 -0.00644531 -0.0225586 -0.0257812 -0.0257812 -0.0257812 -0.0128906 -0.00322266 0 0 -0.00322266 -0.0128906 -0.0225586 -0.0225586 -0.0257812 -0.0418945 -0.0225586 -0.00644531 -0.00644531 0 -0.00322266 -0.0128906 -0.0257812 -0.0257812 -0.0418945 -0.0257812 -0.0128906 -0.00322266 0.0225586 0.0193359 -0.0128906 0 -0.0257812 -0.0805664 -0.0322266 -0.0386719 -0.00644531 -0.00322266 -0.0128906 -0.0257812 -0.0225586 -0.0128906 -0.0257812 -0.0257812 -0.0257812 -0.0225586 -0.0128906 -0.0128906 0 0.00322266 0.00322266 -0.0128906 -0.0128906 -0.0257812 -0.0257812 -0.0128906 -0.0225586 -0.0128906 -0.00322266 0.00322266 0.00322266 0 -0.0128906 -0.0257812 -0.0257812 0 -0.0225586 -0.00644531 -0.00644531 0 -0.00322266 -0.0128906 -0.0257812 -0.0257812 -0.0418945 -0.0257812 -0.0128906 -0.00322266 0.0225586 0.0193359 -0.0128906 0 -0.0257812 -0.0805664 -0.0322266 -0.0386719 -0.00644531 -0.00322266 -0.0128906 -0.0257812 -0.0225586 -0.0128906 -0.0257812 -0.0257812 -0.0257812 -0.0225586 -0.0128906 -0.0128906 0 0.00322266 0.00322266 -0.0128906 -0.0128906 -0.0257812 -0.0257812 -0.0128906 -0.0225586 -0.0128906 -0.00322266 0.00322266 0.00322266 0 -0.0128906 -0.0257812 -0.0257812 -0.0322266 -0.0225586 0 0.0128906 0.00322266 -0.00322266 -0.00644531 -0.0128906 -0.0128906 -0.0225586 -0.0257812 -0.0257812 -0.0128906 -0.00644531 0.00322266 -0.0128906 -0.0257812 -0.0257812 -0.0418945 -0.0418945 -0.0483398 -0.00644531 0.0225586 0 0.00966797 0.0193359 -0.00322266 0.00966797 0.0225586 0 -0.0257812 -0.0644531 -0.0418945 -0.00644531 -0.0257812 -0.0257812 0.112793 0.132129 0.25459 0.0225586 0.00322266 0.0225586 -0.093457 -0.0128906 0.0386719 -0.0805664 -0.219141 -0.35127 -0.270703 -0.621973 0 -0.0225586 0 0.0128906 0.00322266 -0.00322266 -0.00644531 -0.0128906 -0.0128906 -0.0225586 -0.0257812 -0.0257812 -0.0128906 -0.00644531 0.00322266 -0.0128906 -0.0257812 -0.0257812 -0.0418945 -0.0418945 -0.0483398 -0.00644531 0.0225586 0 0.00966797 0.0193359 -0.00322266 0.00966797 0.0225586 0 -0.0257812 -0.0644531 -0.0418945 -0.00644531 -0.0257812 -0.0257812 0.112793 0.132129 0.25459 0.0225586 0.00322266 0.0225586 -0.093457 -0.0128906 0.0386719 -0.0805664 -0.219141 -0.35127 -0.270703 -0.621973 -0.46084 -0.476953 0.0902344 0.638086 0.0386719 -0.00644531 -1.1376 -0.228809 0.244922 0.88623 1.46953 1.3374 1.0248 0.435059 -0.20625 -0.286816 -0.438281 -0.389941 -0.389941 0.0386719 0.319043 0.409277 0.25459 0.203027 0.0386719 -0.286816 -0.512402 -0.464062 -0.322266 -0.393164 -0.31582 -0.103125 -0.116016 -0.0837891 -0.0805664 -0.0257812 0.00966797 0.0483398 -0.0128906 -0.0418945 0.0386719 -0.312598 -0.389941 -0.541406 -0.103125 0.193359 0.228809 0.244922 -0.0418945 0.180469 0 -0.476953 0.0902344 0.638086 0.0386719 -0.00644531 -1.1376 -0.228809 0.244922 0.88623 1.46953 1.3374 1.0248 0.435059 -0.20625 -0.286816 -0.438281 -0.389941 -0.389941 0.0386719 0.319043 0.409277 0.25459 0.203027 0.0386719 -0.286816 -0.512402 -0.464062 -0.322266 -0.393164 -0.31582 -0.103125 -0.116016 -0.0837891 -0.0805664 -0.0257812 0.00966797 0.0483398 -0.0128906 -0.0418945 0.0386719 -0.312598 -0.389941 -0.541406 -0.103125 0.193359 0.228809 0.244922 -0.0418945 0.180469 0.47373 0.538184 0.431836 0.370605 0.36416 -0.0741211 -0.0257812 -0.0128906 0.0773437 0.0451172 0.112793 0.180469 0.0999023 -0.0128906 -0.15791 -0.219141 -0.257812 -0.264258 -0.286816 -0.312598 -0.219141 -0.151465 -0.128906 -0.128906 -0.135352 -0.15791 -0.20625 -0.20625 -0.151465 -0.0805664 0.00322266 -0.00644531 0.0483398 0.0225586 0 -0.0257812 -0.0580078 -0.0805664 -0.0515625 -0.0418945 -0.00644531 0.0225586 0.0612305 0.0386719 0.0612305 0.0483398 0.0193359 -0.0257812 -0.0418945 -0.0225586 0 0.538184 0.431836 0.370605 0.36416 -0.0741211 -0.0257812 -0.0128906 0.0773437 0.0451172 0.112793 0.180469 0.0999023 -0.0128906 -0.15791 -0.219141 -0.257812 -0.264258 -0.286816 -0.312598 -0.219141 -0.151465 -0.128906 -0.128906 -0.135352 -0.15791 -0.20625 -0.20625 -0.151465 -0.0805664 0.00322266 -0.00644531 0.0483398 0.0225586 0 -0.0257812 -0.0580078 -0.0805664 -0.0515625 -0.0418945 -0.00644531 0.0225586 0.0612305 0.0386719 0.0612305 0.0483398 0.0193359 -0.0257812 -0.0418945 -0.0225586 -0.00322266 0.0225586 0.0225586 0 -0.0257812 -0.0580078 -0.0837891 -0.10957 -0.0999023 -0.0741211 -0.0225586 0.0193359 0.0290039 0.00966797 -0.00644531 -0.0257812 -0.093457 -0.103125 -0.0805664 -0.0483398 -0.00644531 0.0225586 0.0483398 0.0386719 -0.00644531 -0.0547852 -0.10957 -0.10957 -0.116016 -0.0902344 -0.0257812 -0.0225586 -0.00322266 -0.0128906 -0.0128906 -0.0644531 -0.093457 -0.093457 -0.0644531 -0.0128906 0.00966797 0.0290039 0.0386719 0.0386719 0.0225586 -0.0257812 -0.0580078 -0.0741211 -0.0644531 -0.0515625 0 0.0225586 0.0225586 0 -0.0257812 -0.0580078 -0.0837891 -0.10957 -0.0999023 -0.0741211 -0.0225586 0.0193359 0.0290039 0.00966797 -0.00644531 -0.0257812 -0.093457 -0.103125 -0.0805664 -0.0483398 -0.00644531 0.0225586 0.0483398 0.0386719 -0.00644531 -0.0547852 -0.10957 -0.10957 -0.116016 -0.0902344 -0.0257812 -0.0225586 -0.00322266 -0.0128906 -0.0128906 -0.0644531 -0.093457 -0.093457 -0.0644531 -0.0128906 0.00966797 0.0290039 0.0386719 0.0386719 0.0225586 -0.0257812 -0.0580078 -0.0741211 -0.0644531 -0.0515625 -0.0515625 -0.0257812 0 0.00322266 0.00966797 -0.0225586 -0.0322266 -0.0515625 -0.0322266 -0.0128906 0.0225586 0.0386719 0.0451172 0.0386719 0.0225586 -0.00322266 -0.0257812 -0.0418945 -0.0257812 -0.00322266 0.0290039 0.0483398 0.0483398 0.0483398 0.0225586 -0.00644531 -0.0322266 -0.0483398 -0.0257812 -0.00322266 0.0225586 0.0451172 0.0483398 0.0386719 0.0225586 -0.0128906 -0.0515625 -0.0805664 -0.0515625 -0.0483398 -0.0257812 -0.00322266 0.00966797 0.00322266 -0.0257812 -0.0418945 -0.0515625 -0.0805664 -0.0515625 -0.0257812 0 -0.0257812 0 0.00322266 0.00966797 -0.0225586 -0.0322266 -0.0515625 -0.0322266 -0.0128906 0.0225586 0.0386719 0.0451172 0.0386719 0.0225586 -0.00322266 -0.0257812 -0.0418945 -0.0257812 -0.00322266 0.0290039 0.0483398 0.0483398 0.0483398 0.0225586 -0.00644531 -0.0322266 -0.0483398 -0.0257812 -0.00322266 0.0225586 0.0451172 0.0483398 0.0386719 0.0225586 -0.0128906 -0.0515625 -0.0805664 -0.0515625 -0.0483398 -0.0257812 -0.00322266 0.00966797 0.00322266 -0.0257812 -0.0418945 -0.0515625 -0.0805664 -0.0515625 -0.0257812 0 0.0225586 0.0451172 0.0225586 0.0225586 -0.00322266 -0.0257812 -0.0515625 -0.0418945 -0.0257812 -0.00644531 0.0225586 0.0386719 0.0290039 0.0193359 -0.0128906 -0.0515625 -0.0644531 -0.0515625 -0.0257812 -0.00322266 0.00966797 0.0386719 0.0225586 -0.00322266 -0.0257812 -0.0515625 -0.0805664 -0.0580078 -0.0257812 0 0 0.0225586 0.00966797 -0.0225586 -0.0418945 -0.0515625 -0.0805664 -0.0741211 -0.0580078 -0.0128906 0.00322266 0.0225586 0.0193359 0 -0.0257812 -0.0515625 -0.0805664 -0.0805664 -0.0515625 0 0.0225586 0.0451172 0.0225586 0.0225586 -0.00322266 -0.0257812 -0.0515625 -0.0418945 -0.0257812 -0.00644531 0.0225586 0.0386719 0.0290039 0.0193359 -0.0128906 -0.0515625 -0.0644531 -0.0515625 -0.0257812 -0.00322266 0.00966797 0.0386719 0.0225586 -0.00322266 -0.0257812 -0.0515625 -0.0805664 -0.0580078 -0.0257812 0 0 0.0225586 0.00966797 -0.0225586 -0.0418945 -0.0515625 -0.0805664 -0.0741211 -0.0580078 -0.0128906 0.00322266 0.0225586 0.0193359 0 -0.0257812 -0.0515625 -0.0805664 -0.0805664 -0.0515625 -0.0257812 0.00966797 0.0225586 0.00966797 -0.00644531 -0.0257812 -0.0580078 -0.0805664 -0.0805664 -0.0515625 -0.0257812 0 0.0225586 0.0193359 0.00322266 -0.0257812 -0.0515625 -0.0805664 -0.0580078 -0.0418945 -0.00644531 0.0225586 0.0386719 0.0225586 0.0225586 -0.00322266 -0.0515625 -0.0515625 -0.0644531 -0.0547852 -0.0128906 0.00966797 0.0386719 0.0386719 0.00966797 -0.0128906 -0.0418945 -0.0515625 -0.0483398 -0.0257812 -0.00322266 0.0225586 0.0290039 0.0386719 0.0225586 -0.00322266 -0.0257812 -0.0580078 -0.0483398 -0.0257812 0 0.00966797 0.0225586 0.00966797 -0.00644531 -0.0257812 -0.0580078 -0.0805664 -0.0805664 -0.0515625 -0.0257812 0 0.0225586 0.0193359 0.00322266 -0.0257812 -0.0515625 -0.0805664 -0.0580078 -0.0418945 -0.00644531 0.0225586 0.0386719 0.0225586 0.0225586 -0.00322266 -0.0515625 -0.0515625 -0.0644531 -0.0547852 -0.0128906 0.00966797 0.0386719 0.0386719 0.00966797 -0.0128906 -0.0418945 -0.0515625 -0.0483398 -0.0257812 -0.00322266 0.0225586 0.0290039 0.0386719 0.0225586 -0.00322266 -0.0257812 -0.0580078 -0.0483398 -0.0257812 0 0.0225586 0.0386719 0.0386719 0.0193359 -0.00644531 -0.0418945 -0.0644531 -0.0515625 -0.0322266 -0.00322266 0.0386719 0.0386719 0.0225586 0.00966797 0 -0.0225586 -0.0805664 -0.0580078 -0.0418945 -0.00644531 -0.00322266 0.0225586 0.00966797 0.00966797 -0.0128906 -0.0418945 -0.0515625 -0.0483398 -0.0418945 -0.0257812 0.00966797 0.0225586 0.0225586 0.00966797 -0.00644531 -0.0257812 -0.0515625 -0.0515625 -0.0322266 -0.0128906 0.00966797 0.0386719 0.0225586 -0.00322266 -0.0257812 -0.0418945 -0.0805664 -0.0644531 -0.0418945 0 0.0225586 0.0386719 0.0386719 0.0193359 -0.00644531 -0.0418945 -0.0644531 -0.0515625 -0.0322266 -0.00322266 0.0386719 0.0386719 0.0225586 0.00966797 0 -0.0225586 -0.0805664 -0.0580078 -0.0418945 -0.00644531 -0.00322266 0.0225586 0.00966797 0.00966797 -0.0128906 -0.0418945 -0.0515625 -0.0483398 -0.0418945 -0.0257812 0.00966797 0.0225586 0.0225586 0.00966797 -0.00644531 -0.0257812 -0.0515625 -0.0515625 -0.0322266 -0.0128906 0.00966797 0.0386719 0.0225586 -0.00322266 -0.0257812 -0.0418945 -0.0805664 -0.0644531 -0.0418945 -0.00322266 0.0225586 0.00966797 0.00966797 -0.00322266 -0.0128906 -0.0257812 -0.0741211 -0.0580078 -0.0418945 -0.0225586 0.00322266 0.0225586 0.0225586 0.00966797 -0.0257812 -0.0483398 -0.0580078 -0.0515625 -0.0418945 -0.0225586 0.00966797 0.0225586 0.0225586 0.00322266 -0.0128906 -0.0515625 -0.0741211 -0.0515625 -0.0418945 -0.00322266 0 0.0225586 0.0193359 0.00322266 -0.0257812 -0.0483398 -0.0805664 -0.0580078 -0.0418945 -0.00322266 0.00322266 0.0290039 0.0386719 0.0225586 -0.0257812 -0.0483398 -0.0805664 -0.0644531 -0.0483398 0 0.0225586 0.00966797 0.00966797 -0.00322266 -0.0128906 -0.0257812 -0.0741211 -0.0580078 -0.0418945 -0.0225586 0.00322266 0.0225586 0.0225586 0.00966797 -0.0257812 -0.0483398 -0.0580078 -0.0515625 -0.0418945 -0.0225586 0.00966797 0.0225586 0.0225586 0.00322266 -0.0128906 -0.0515625 -0.0741211 -0.0515625 -0.0418945 -0.00322266 0 0.0225586 0.0193359 0.00322266 -0.0257812 -0.0483398 -0.0805664 -0.0580078 -0.0418945 -0.00322266 0.00322266 0.0290039 0.0386719 0.0225586 -0.0257812 -0.0483398 -0.0805664 -0.0644531 -0.0483398 -0.00322266 0.00966797 0.0225586 0.0386719 0 -0.0128906 -0.0418945 -0.0644531 -0.0644531 -0.0418945 0 0.00966797 0.0225586 0.0290039 0.0225586 0.00322266 -0.0257812 -0.0515625 -0.0644531 -0.0515625 -0.00644531 0.00966797 0.0386719 0.0290039 0.0225586 -0.0128906 -0.0257812 -0.0515625 -0.0580078 -0.0418945 -0.00644531 0.00966797 0.0225586 0.0225586 -0.00322266 -0.0128906 -0.0515625 -0.0644531 -0.0515625 -0.0418945 -0.0128906 0.00966797 0.0225586 0.0225586 0 -0.0128906 -0.0418945 -0.0515625 -0.0580078 -0.0418945 0 0.00966797 0.0225586 0.0386719 0 -0.0128906 -0.0418945 -0.0644531 -0.0644531 -0.0418945 0 0.00966797 0.0225586 0.0290039 0.0225586 0.00322266 -0.0257812 -0.0515625 -0.0644531 -0.0515625 -0.00644531 0.00966797 0.0386719 0.0290039 0.0225586 -0.0128906 -0.0257812 -0.0515625 -0.0580078 -0.0418945 -0.00644531 0.00966797 0.0225586 0.0225586 -0.00322266 -0.0128906 -0.0515625 -0.0644531 -0.0515625 -0.0418945 -0.0128906 0.00966797 0.0225586 0.0225586 0 -0.0128906 -0.0418945 -0.0515625 -0.0580078 -0.0418945 -0.0128906 0.0225586 0.00966797 0.00966797 -0.00644531 -0.00644531 -0.0257812 -0.0515625 -0.0515625 -0.0257812 -0.0128906 0.00966797 0.0225586 0.0225586 0.00966797 -0.0128906 -0.0418945 -0.0483398 -0.0515625 -0.0483398 -0.00322266 0.00966797 0.0225586 0.0225586 0.00966797 -0.0128906 -0.0322266 -0.0580078 -0.0515625 -0.0418945 -0.0128906 0.00966797 0.0193359 0.00966797 0.00966797 -0.00322266 -0.0322266 -0.0515625 -0.0580078 -0.0418945 -0.0128906 0.00966797 0.0225586 0.0225586 0.00966797 -0.0225586 -0.0483398 -0.0515625 -0.0644531 -0.0257812 0 0.0225586 0.00966797 0.00966797 -0.00644531 -0.00644531 -0.0257812 -0.0515625 -0.0515625 -0.0257812 -0.0128906 0.00966797 0.0225586 0.0225586 0.00966797 -0.0128906 -0.0418945 -0.0483398 -0.0515625 -0.0483398 -0.00322266 0.00966797 0.0225586 0.0225586 0.00966797 -0.0128906 -0.0322266 -0.0580078 -0.0515625 -0.0418945 -0.0128906 0.00966797 0.0193359 0.00966797 0.00966797 -0.00322266 -0.0322266 -0.0515625 -0.0580078 -0.0418945 -0.0128906 0.00966797 0.0225586 0.0225586 0.00966797 -0.0225586 -0.0483398 -0.0515625 -0.0644531 -0.0257812 -0.00644531 0.00322266 0.00322266 0.00322266 0.00966797 -0.0128906 -0.0257812 -0.0515625 -0.0515625 -0.0257812 -0.0128906 0.00322266 0.0225586 0.00966797 -0.00644531 -0.0225586 -0.0418945 -0.0644531 -0.0515625 -0.0418945 -0.0128906 0.00322266 0.00966797 0.0193359 0.0225586 -0.0128906 -0.0257812 -0.0418945 -0.0483398 -0.0515625 -0.0257812 -0.00322266 0.00322266 0.00966797 0.00966797 -0.0128906 -0.0225586 -0.0515625 -0.0515625 -0.0547852 -0.0128906 0 0.0225586 0.0193359 0.00966797 -0.00322266 -0.0386719 -0.0644531 -0.0483398 -0.0257812 0 0.00322266 0.00322266 0.00322266 0.00966797 -0.0128906 -0.0257812 -0.0515625 -0.0515625 -0.0257812 -0.0128906 0.00322266 0.0225586 0.00966797 -0.00644531 -0.0225586 -0.0418945 -0.0644531 -0.0515625 -0.0418945 -0.0128906 0.00322266 0.00966797 0.0193359 0.0225586 -0.0128906 -0.0257812 -0.0418945 -0.0483398 -0.0515625 -0.0257812 -0.00322266 0.00322266 0.00966797 0.00966797 -0.0128906 -0.0225586 -0.0515625 -0.0515625 -0.0547852 -0.0128906 0 0.0225586 0.0193359 0.00966797 -0.00322266 -0.0386719 -0.0644531 -0.0483398 -0.0257812 -0.00644531 0 0.0225586 0.00966797 0 -0.0128906 -0.0257812 -0.0483398 -0.0515625 -0.0322266 -0.0128906 0.00966797 0.0225586 0.0193359 0.0193359 -0.00644531 -0.0257812 -0.0483398 -0.0515625 -0.0515625 -0.0225586 0.00966797 0.0225586 0.0128906 0.0193359 -0.0128906 -0.0257812 -0.0644531 -0.0418945 -0.0418945 -0.00644531 0.00966797 0.0225586 0.0225586 0.00966797 -0.00644531 -0.0257812 -0.0257812 -0.0515625 -0.0418945 -0.0128906 -0.00322266 0.0225586 0.00966797 0.00322266 -0.00322266 -0.0257812 -0.0418945 -0.0483398 -0.0418945 0 0 0.0225586 0.00966797 0 -0.0128906 -0.0257812 -0.0483398 -0.0515625 -0.0322266 -0.0128906 0.00966797 0.0225586 0.0193359 0.0193359 -0.00644531 -0.0257812 -0.0483398 -0.0515625 -0.0515625 -0.0225586 0.00966797 0.0225586 0.0128906 0.0193359 -0.0128906 -0.0257812 -0.0644531 -0.0418945 -0.0418945 -0.00644531 0.00966797 0.0225586 0.0225586 0.00966797 -0.00644531 -0.0257812 -0.0257812 -0.0515625 -0.0418945 -0.0128906 -0.00322266 0.0225586 0.00966797 0.00322266 -0.00322266 -0.0257812 -0.0418945 -0.0483398 -0.0418945 -0.0257812 -0.00322266 0.00966797 0.0225586 0.0193359 -0.0128906 -0.0128906 -0.0515625 -0.0515625 -0.0483398 -0.0225586 -0.0128906 0.00966797 0 0.00966797 -0.0225586 -0.0225586 -0.0418945 -0.0515625 -0.0418945 -0.0128906 -0.00644531 0.00322266 0.00322266 0.0128906 -0.00644531 -0.0257812 -0.0515625 -0.0580078 -0.0515625 -0.0128906 0 0.0193359 0.0193359 0.0193359 0 -0.0257812 -0.0483398 -0.0515625 -0.0257812 -0.0128906 0.00966797 0.0225586 0.0193359 -0.0128906 -0.00644531 -0.0257812 -0.0515625 -0.0418945 -0.0483398 0 -0.00322266 0.00966797 0.0225586 0.0193359 -0.0128906 -0.0128906 -0.0515625 -0.0515625 -0.0483398 -0.0225586 -0.0128906 0.00966797 0 0.00966797 -0.0225586 -0.0225586 -0.0418945 -0.0515625 -0.0418945 -0.0128906 -0.00644531 0.00322266 0.00322266 0.0128906 -0.00644531 -0.0257812 -0.0515625 -0.0580078 -0.0515625 -0.0128906 0 0.0193359 0.0193359 0.0193359 0 -0.0257812 -0.0483398 -0.0515625 -0.0257812 -0.0128906 0.00966797 0.0225586 0.0193359 -0.0128906 -0.00644531 -0.0257812 -0.0515625 -0.0418945 -0.0483398 -0.0128906 -0.00322266 0.0193359 -0.00322266 0.00966797 -0.00644531 -0.0257812 -0.0418945 -0.0515625 -0.0322266 -0.0128906 0.00966797 0.0225586 0.00322266 0.00966797 -0.0128906 -0.0257812 -0.0515625 -0.0483398 -0.0257812 -0.0128906 -0.00644531 0.00966797 0.00966797 0.00322266 -0.00322266 -0.0257812 -0.0257812 -0.0257812 -0.0418945 -0.00322266 0.00322266 0.00966797 0.00322266 -0.00322266 -0.00322266 -0.0418945 -0.0483398 -0.0386719 -0.0515625 -0.0128906 -0.00322266 0.00966797 0.0193359 0.0193359 -0.00322266 -0.0257812 -0.0322266 -0.0515625 -0.0418945 0 -0.00322266 0.0193359 -0.00322266 0.00966797 -0.00644531 -0.0257812 -0.0418945 -0.0515625 -0.0322266 -0.0128906 0.00966797 0.0225586 0.00322266 0.00966797 -0.0128906 -0.0257812 -0.0515625 -0.0483398 -0.0257812 -0.0128906 -0.00644531 0.00966797 0.00966797 0.00322266 -0.00322266 -0.0257812 -0.0257812 -0.0257812 -0.0418945 -0.00322266 0.00322266 0.00966797 0.00322266 -0.00322266 -0.00322266 -0.0418945 -0.0483398 -0.0386719 -0.0515625 -0.0128906 -0.00322266 0.00966797 0.0193359 0.0193359 -0.00322266 -0.0257812 -0.0322266 -0.0515625 -0.0418945 -0.0225586 0 0.00322266 0.00966797 -0.00644531 -0.0128906 -0.0257812 -0.0515625 -0.0386719 -0.0322266 -0.0257812 -0.00322266 0.00966797 0.0193359 0.00966797 -0.0128906 -0.0257812 -0.0418945 -0.0418945 -0.0257812 -0.0257812 -0.0128906 -0.00322266 -0.00322266 0.00966797 0 -0.0257812 -0.0322266 -0.0515625 -0.0322266 -0.0257812 -0.00322266 0.00966797 0.00322266 0 -0.00322266 -0.0257812 -0.0257812 -0.0257812 -0.0257812 -0.0257812 -0.0225586 0 0.0193359 0.0193359 -0.00322266 -0.0128906 -0.0418945 -0.0257812 -0.0257812 0 0 0.00322266 0.00966797 -0.00644531 -0.0128906 -0.0257812 -0.0515625 -0.0386719 -0.0322266 -0.0257812 -0.00322266 0.00966797 0.0193359 0.00966797 -0.0128906 -0.0257812 -0.0418945 -0.0418945 -0.0257812 -0.0257812 -0.0128906 -0.00322266 -0.00322266 0.00966797 0 -0.0257812 -0.0322266 -0.0515625 -0.0322266 -0.0257812 -0.00322266 0.00966797 0.00322266 0 -0.00322266 -0.0257812 -0.0257812 -0.0257812 -0.0257812 -0.0257812 -0.0225586 0 0.0193359 0.0193359 -0.00322266 -0.0128906 -0.0418945 -0.0257812 -0.0257812 -0.0257812 -0.00644531 0.00966797 0.00966797 -0.00322266 -0.0225586 -0.0225586 -0.0322266 -0.0418945 -0.0257812 -0.0418945 -0.0128906 0.00966797 0.00966797 0 -0.00322266 -0.0225586 -0.0257812 -0.0515625 -0.0483398 -0.0257812 -0.00322266 0.00322266 0 0.00966797 -0.0128906 -0.0257812 -0.0418945 -0.0418945 -0.0322266 -0.0128906 -0.00644531 0.0225586 0.00966797 0.0193359 -0.00322266 -0.0257812 -0.0515625 -0.0483398 -0.0257812 -0.0225586 -0.00322266 0.0225586 0 -0.00322266 -0.00644531 -0.0128906 -0.0483398 -0.0386719 -0.0418945 0 -0.00644531 0.00966797 0.00966797 -0.00322266 -0.0225586 -0.0225586 -0.0322266 -0.0418945 -0.0257812 -0.0418945 -0.0128906 0.00966797 0.00966797 0 -0.00322266 -0.0225586 -0.0257812 -0.0515625 -0.0483398 -0.0257812 -0.00322266 0.00322266 0 0.00966797 -0.0128906 -0.0257812 -0.0418945 -0.0418945 -0.0322266 -0.0128906 -0.00644531 0.0225586 0.00966797 0.0193359 -0.00322266 -0.0257812 -0.0515625 -0.0483398 -0.0257812 -0.0225586 -0.00322266 0.0225586 0 -0.00322266 -0.00644531 -0.0128906 -0.0483398 -0.0386719 -0.0418945 -0.0225586 0.00966797 0.0193359 0.00966797 -0.00322266 -0.00322266 -0.0225586 -0.0418945 -0.0483398 -0.0257812 -0.0128906 -0.0128906 0.00322266 -0.00322266 0.00322266 -0.00644531 -0.0128906 -0.0322266 -0.0257812 -0.0483398 -0.0257812 -0.00644531 0 0 0.00322266 -0.00322266 -0.0225586 -0.0418945 -0.0418945 -0.0322266 -0.0128906 -0.0225586 0.00966797 0.0193359 0.0225586 -0.0257812 -0.0225586 -0.0418945 -0.0418945 -0.0418945 -0.0257812 -0.00322266 0.00966797 0.00966797 0.00966797 -0.0128906 -0.0257812 -0.0418945 -0.0418945 -0.0418945 0 0.00966797 0.0193359 0.00966797 -0.00322266 -0.00322266 -0.0225586 -0.0418945 -0.0483398 -0.0257812 -0.0128906 -0.0128906 0.00322266 -0.00322266 0.00322266 -0.00644531 -0.0128906 -0.0322266 -0.0257812 -0.0483398 -0.0257812 -0.00644531 0 0 0.00322266 -0.00322266 -0.0225586 -0.0418945 -0.0418945 -0.0322266 -0.0128906 -0.0225586 0.00966797 0.0193359 0.0225586 -0.0257812 -0.0225586 -0.0418945 -0.0418945 -0.0418945 -0.0257812 -0.00322266 0.00966797 0.00966797 0.00966797 -0.0128906 -0.0257812 -0.0418945 -0.0418945 -0.0418945 -0.0257812 -0.00644531 0.00966797 0.00966797 0.0193359 0 -0.0128906 -0.0257812 -0.0483398 -0.0257812 -0.0257812 -0.0128906 0 0.00322266 0 0 -0.0128906 -0.0257812 -0.0257812 -0.0257812 -0.0257812 -0.00644531 0 0.00966797 0.0193359 0.00322266 -0.00644531 -0.0483398 -0.0483398 -0.0483398 -0.0257812 -0.0128906 0.00966797 0.00322266 0.00966797 0 -0.0257812 -0.0257812 -0.0418945 -0.0515625 -0.0322266 -0.00322266 0.00322266 0.00322266 0.0225586 -0.00644531 -0.0257812 -0.0257812 -0.0515625 -0.0418945 0 -0.00644531 0.00966797 0.00966797 0.0193359 0 -0.0128906 -0.0257812 -0.0483398 -0.0257812 -0.0257812 -0.0128906 0 0.00322266 0 0 -0.0128906 -0.0257812 -0.0257812 -0.0257812 -0.0257812 -0.00644531 0 0.00966797 0.0193359 0.00322266 -0.00644531 -0.0483398 -0.0483398 -0.0483398 -0.0257812 -0.0128906 0.00966797 0.00322266 0.00966797 0 -0.0257812 -0.0257812 -0.0418945 -0.0515625 -0.0322266 -0.00322266 0.00322266 0.00322266 0.0225586 -0.00644531 -0.0257812 -0.0257812 -0.0515625 -0.0418945 -0.0257812 -0.00322266 0.00322266 0.00966797 0.0193359 0.00966797 -0.0257812 -0.0515625 -0.0580078 -0.0418945 -0.0225586 0 0.00322266 0.0225586 0.0225586 0 -0.0257812 -0.0483398 -0.0322266 -0.0515625 -0.0225586 -0.00644531 0.00966797 0.0193359 0.00966797 -0.00322266 -0.0257812 -0.0257812 -0.0257812 -0.0418945 -0.0257812 -0.0128906 0.00322266 0.00966797 0.00966797 -0.00644531 -0.0257812 -0.0418945 -0.0257812 -0.0418945 -0.0257812 -0.00644531 0.00322266 0.00966797 0.00322266 -0.0128906 -0.0128906 -0.0418945 -0.0483398 -0.0418945 0 -0.00322266 0.00322266 0.00966797 0.0193359 0.00966797 -0.0257812 -0.0515625 -0.0580078 -0.0418945 -0.0225586 0 0.00322266 0.0225586 0.0225586 0 -0.0257812 -0.0483398 -0.0322266 -0.0515625 -0.0225586 -0.00644531 0.00966797 0.0193359 0.00966797 -0.00322266 -0.0257812 -0.0257812 -0.0257812 -0.0418945 -0.0257812 -0.0128906 0.00322266 0.00966797 0.00966797 -0.00644531 -0.0257812 -0.0418945 -0.0257812 -0.0418945 -0.0257812 -0.00644531 0.00322266 0.00966797 0.00322266 -0.0128906 -0.0128906 -0.0418945 -0.0483398 -0.0418945 -0.0128906 -0.00644531 0.00322266 0.00966797 0.00322266 -0.00322266 -0.0418945 -0.0418945 -0.0257812 -0.0257812 -0.0322266 -0.0128906 -0.00644531 0.00966797 0.00966797 -0.00644531 -0.0257812 -0.0257812 -0.0483398 -0.0515625 -0.0257812 -0.0128906 -0.0225586 0.00966797 0.00966797 0 -0.0257812 -0.0418945 -0.0418945 -0.0257812 -0.0128906 -0.0128906 -0.00322266 0.00966797 0.00966797 -0.00644531 -0.0128906 -0.0418945 -0.0322266 -0.0257812 -0.0257812 -0.0128906 0.00322266 0.0193359 0.00966797 0.00322266 -0.00322266 -0.0418945 -0.0515625 -0.0515625 0 