-0.0999023 -0.0805664 -0.0386719 0.00966797 0.0483398 0.0612305 0.0451172 0.00966797 -0.0418945 -0.0805664 -0.0837891 -0.0741211 -0.0257812 0.0193359 0.0451172 0.0612305 0.0483398 0.00322266 -0.0322266 -0.0644531 -0.0837891 -0.0805664 -0.0257812 0.00966797 0.0451172 0.0612305 0.0483398 0.0225586 -0.0257812 -0.093457 -0.0837891 -0.0805664 -0.0386719 0.00966797 0.0547852 0.0483398 0.0451172 0.00966797 -0.0257812 -0.0837891 -0.093457 -0.0805664 -0.0418945 0.00322266 0.0451172 0.0483398 0.0386719 0.0193359 -0.0418945 -0.0805664 -0.093457 -0.0644531 -0.0225586 0.0225586 0.0773437 0.0612305 0.0547852 0.00966797 -0.0322266 -0.0805664 -0.103125 -0.093457 -0.0418945 0.0193359 0.0708984 0.0773437 0.0483398 0.00322266 -0.0418945 -0.0805664 -0.103125 -0.0805664 -0.0418945 0.00966797 0.0483398 0.0773437 0.0773437 0.00322266 -0.0515625 -0.0999023 -0.116016 -0.0837891 -0.0418945 0.00966797 0.0547852 0.0773437 0.0451172 0.00322266 -0.0418945 -0.093457 -0.116016 -0.0999023 -0.0418945 0.0225586 0.0612305 0.0805664 0.0547852 0.00322266 -0.0515625 0 -0.093457 -0.0644531 -0.0225586 0.0225586 0.0773437 0.0612305 0.0547852 0.00966797 -0.0322266 -0.0805664 -0.103125 -0.093457 -0.0418945 0.0193359 0.0708984 0.0773437 0.0483398 0.00322266 -0.0418945 -0.0805664 -0.103125 -0.0805664 -0.0418945 0.00966797 0.0483398 0.0773437 0.0773437 0.00322266 -0.0515625 -0.0999023 -0.116016 -0.0837891 -0.0418945 0.00966797 0.0547852 0.0773437 0.0451172 0.00322266 -0.0418945 -0.093457 -0.116016 -0.0999023 -0.0418945 0.0225586 0.0612305 0.0805664 0.0547852 0.00322266 -0.0515625 -0.103125 -0.103125 -0.0837891 -0.0257812 0.0225586 0.0773437 0.0805664 0.0483398 0.00966797 -0.0515625 -0.103125 -0.103125 -0.093457 -0.0257812 0.0386719 0.0773437 0.0773437 0.0483398 0.00966797 -0.0515625 -0.103125 -0.116016 -0.0837891 -0.0418945 0.0225586 0.0773437 0.0805664 0.0773437 0 -0.0515625 -0.103125 -0.116016 -0.0837891 -0.0257812 0.0225586 0.0773437 0.0773437 0.0451172 0.0193359 -0.0483398 -0.103125 -0.103125 -0.093457 -0.0257812 0.0290039 0.0773437 0.0966797 0.0612305 0.00966797 -0.0483398 0 -0.103125 -0.0837891 -0.0257812 0.0225586 0.0773437 0.0805664 0.0483398 0.00966797 -0.0515625 -0.103125 -0.103125 -0.093457 -0.0257812 0.0386719 0.0773437 0.0773437 0.0483398 0.00966797 -0.0515625 -0.103125 -0.116016 -0.0837891 -0.0418945 0.0225586 0.0773437 0.0805664 0.0773437 0 -0.0515625 -0.103125 -0.116016 -0.0837891 -0.0257812 0.0225586 0.0773437 0.0773437 0.0451172 0.0193359 -0.0483398 -0.103125 -0.103125 -0.093457 -0.0257812 0.0290039 0.0773437 0.0966797 0.0612305 0.00966797 -0.0483398 -0.103125 -0.116016 -0.093457 -0.0322266 0.0386719 0.0773437 0.0773437 0.0483398 0.00322266 -0.0418945 -0.0999023 -0.103125 -0.0805664 -0.0257812 0.0225586 0.0483398 0.0773437 0.0612305 0.00966797 -0.0418945 -0.103125 -0.116016 -0.0805664 -0.0257812 0.0386719 0.0805664 0.0902344 0.0612305 -0.00322266 -0.0644531 -0.116016 -0.128906 -0.093457 -0.0257812 0.0386719 0.0773437 0.0805664 0.0483398 -0.0128906 -0.0644531 -0.103125 -0.116016 -0.093457 -0.0418945 0.0225586 0.0902344 0.0966797 0.0708984 -0.00644531 -0.0805664 0 -0.116016 -0.093457 -0.0322266 0.0386719 0.0773437 0.0773437 0.0483398 0.00322266 -0.0418945 -0.0999023 -0.103125 -0.0805664 -0.0257812 0.0225586 0.0483398 0.0773437 0.0612305 0.00966797 -0.0418945 -0.103125 -0.116016 -0.0805664 -0.0257812 0.0386719 0.0805664 0.0902344 0.0612305 -0.00322266 -0.0644531 -0.116016 -0.128906 -0.093457 -0.0257812 0.0386719 0.0773437 0.0805664 0.0483398 -0.0128906 -0.0644531 -0.103125 -0.116016 -0.093457 -0.0418945 0.0225586 0.0902344 0.0966797 0.0708984 -0.00644531 -0.0805664 -0.125684 -0.125684 -0.103125 -0.0257812 0.0290039 0.0805664 0.0999023 0.0773437 0.00966797 -0.0644531 -0.116016 -0.128906 -0.093457 -0.0257812 0.0386719 0.0966797 0.0999023 0.0612305 0.00322266 -0.0515625 -0.0999023 -0.125684 -0.103125 -0.0257812 0.0483398 0.0966797 0.0966797 0.0708984 0 -0.0644531 -0.116016 -0.128906 -0.093457 -0.0257812 0.0386719 0.0805664 0.0999023 0.0483398 -0.0128906 -0.0805664 -0.128906 -0.116016 -0.0805664 -0.0225586 0.0451172 0.0966797 0.0999023 0.0612305 -0.00322266 -0.0580078 0 -0.125684 -0.103125 -0.0257812 0.0290039 0.0805664 0.0999023 0.0773437 0.00966797 -0.0644531 -0.116016 -0.128906 -0.093457 -0.0257812 0.0386719 0.0966797 0.0999023 0.0612305 0.00322266 -0.0515625 -0.0999023 -0.125684 -0.103125 -0.0257812 0.0483398 0.0966797 0.0966797 0.0708984 0 -0.0644531 -0.116016 -0.128906 -0.093457 -0.0257812 0.0386719 0.0805664 0.0999023 0.0483398 -0.0128906 -0.0805664 -0.128906 -0.116016 -0.0805664 -0.0225586 0.0451172 0.0966797 0.0999023 0.0612305 -0.00322266 -0.0580078 -0.10957 -0.128906 -0.093457 -0.0257812 0.0225586 0.0773437 0.0805664 0.0547852 0 -0.0515625 -0.103125 -0.125684 -0.103125 -0.0257812 0.0290039 0.0773437 0.0805664 0.0483398 0 -0.0644531 -0.0999023 -0.128906 -0.103125 -0.0418945 0.0225586 0.0547852 0.0805664 0.0612305 0 -0.0515625 -0.0999023 -0.10957 -0.0837891 -0.0128906 0.0386719 0.0902344 0.0902344 0.0547852 0 -0.0644531 -0.103125 -0.116016 -0.093457 -0.0257812 0.0225586 0.0773437 0.0902344 0.0612305 0 -0.0580078 0 -0.128906 -0.093457 -0.0257812 0.0225586 0.0773437 0.0805664 0.0547852 0 -0.0515625 -0.103125 -0.125684 -0.103125 -0.0257812 0.0290039 0.0773437 0.0805664 0.0483398 0 -0.0644531 -0.0999023 -0.128906 -0.103125 -0.0418945 0.0225586 0.0547852 0.0805664 0.0612305 0 -0.0515625 -0.0999023 -0.10957 -0.0837891 -0.0128906 0.0386719 0.0902344 0.0902344 0.0547852 0 -0.0644531 -0.103125 -0.116016 -0.093457 -0.0257812 0.0225586 0.0773437 0.0902344 0.0612305 0 -0.0580078 -0.103125 -0.116016 -0.0837891 -0.0257812 0.0386719 0.0773437 0.0773437 0.0547852 0.00322266 -0.0515625 -0.103125 -0.0999023 -0.0805664 -0.0418945 0.00966797 0.0483398 0.0805664 0.0451172 0 -0.0257812 -0.0741211 -0.093457 -0.0741211 -0.0257812 0.00966797 0.0451172 0.0547852 0.0483398 0.00966797 -0.0418945 -0.093457 -0.116016 -0.0805664 -0.0257812 0.0225586 0.0483398 0.0773437 0.0483398 0.0193359 -0.0515625 -0.093457 -0.116016 -0.0805664 -0.0322266 0.0290039 0.0902344 0.0902344 0.0708984 0.00322266 -0.0580078 0 -0.116016 -0.0837891 -0.0257812 0.0386719 0.0773437 0.0773437 0.0547852 0.00322266 -0.0515625 -0.103125 -0.0999023 -0.0805664 -0.0418945 0.00966797 0.0483398 0.0805664 0.0451172 0 -0.0257812 -0.0741211 -0.093457 -0.0741211 -0.0257812 0.00966797 0.0451172 0.0547852 0.0483398 0.00966797 -0.0418945 -0.093457 -0.116016 -0.0805664 -0.0257812 0.0225586 0.0483398 0.0773437 0.0483398 0.0193359 -0.0515625 -0.093457 -0.116016 -0.0805664 -0.0322266 0.0290039 0.0902344 0.0902344 0.0708984 0.00322266 -0.0580078 -0.116016 -0.125684 -0.093457 -0.0257812 0.0386719 0.0902344 0.0999023 0.0612305 0.00966797 -0.0644531 -0.128906 -0.128906 -0.103125 -0.0257812 0.0483398 0.0773437 0.0966797 0.0773437 0.00322266 -0.0515625 -0.103125 -0.116016 -0.0999023 -0.0257812 0.0290039 0.0805664 0.0902344 0.0483398 -0.00322266 -0.0644531 -0.0999023 -0.116016 -0.093457 -0.0418945 0.0386719 0.0902344 0.0966797 0.0612305 0 -0.0644531 -0.10957 -0.125684 -0.0837891 -0.0257812 0.0225586 0.0773437 0.0902344 0.0612305 0 -0.0580078 0 -0.125684 -0.093457 -0.0257812 0.0386719 0.0902344 0.0999023 0.0612305 0.00966797 -0.0644531 -0.128906 -0.128906 -0.103125 -0.0257812 0.0483398 0.0773437 0.0966797 0.0773437 0.00322266 -0.0515625 -0.103125 -0.116016 -0.0999023 -0.0257812 0.0290039 0.0805664 0.0902344 0.0483398 -0.00322266 -0.0644531 -0.0999023 -0.116016 -0.093457 -0.0418945 0.0386719 0.0902344 0.0966797 0.0612305 0 -0.0644531 -0.10957 -0.125684 -0.0837891 -0.0257812 0.0225586 0.0773437 0.0902344 0.0612305 0 -0.0580078 -0.103125 -0.116016 -0.093457 -0.0322266 0.0290039 0.0773437 0.0805664 0.0547852 0.00322266 -0.0644531 -0.116016 -0.125684 -0.0837891 -0.0257812 0.0225586 0.0773437 0.0966797 0.0773437 0.00966797 -0.0644531 -0.116016 -0.125684 -0.093457 -0.0257812 0.0193359 0.0612305 0.0773437 0.0483398 -0.00322266 -0.0515625 -0.0999023 -0.10957 -0.0805664 -0.0257812 0.0225586 0.0773437 0.0966797 0.0612305 0.00322266 -0.0515625 -0.103125 -0.116016 -0.0999023 -0.0257812 0.0451172 0.0902344 0.0999023 0.0612305 0.00322266 -0.0515625 0 -0.116016 -0.093457 -0.0322266 0.0290039 0.0773437 0.0805664 0.0547852 0.00322266 -0.0644531 -0.116016 -0.125684 -0.0837891 -0.0257812 0.0225586 0.0773437 0.0966797 0.0773437 0.00966797 -0.0644531 -0.116016 -0.125684 -0.093457 -0.0257812 0.0193359 0.0612305 0.0773437 0.0483398 -0.00322266 -0.0515625 -0.0999023 -0.10957 -0.0805664 -0.0257812 0.0225586 0.0773437 0.0966797 0.0612305 0.00322266 -0.0515625 -0.103125 -0.116016 -0.0999023 -0.0257812 0.0451172 0.0902344 0.0999023 0.0612305 0.00322266 -0.0515625 -0.103125 -0.116016 -0.0805664 -0.0257812 0.0225586 0.0773437 0.0805664 0.0483398 0.00322266 -0.0515625 -0.103125 -0.116016 -0.093457 -0.0322266 0.0225586 0.0773437 0.0773437 0.0612305 0.00322266 -0.0580078 -0.0999023 -0.116016 -0.093457 -0.0418945 0.0225586 0.0773437 0.0902344 0.0483398 0 -0.0580078 -0.103125 -0.103125 -0.0805664 -0.0225586 0.0225586 0.0773437 0.0773437 0.0612305 0.00966797 -0.0515625 -0.103125 -0.103125 -0.093457 -0.0257812 0.0225586 0.0773437 0.0805664 0.0483398 0 -0.0644531 0 -0.116016 -0.0805664 -0.0257812 0.0225586 0.0773437 0.0805664 0.0483398 0.00322266 -0.0515625 -0.103125 -0.116016 -0.093457 -0.0322266 0.0225586 0.0773437 0.0773437 0.0612305 0.00322266 -0.0580078 -0.0999023 -0.116016 -0.093457 -0.0418945 0.0225586 0.0773437 0.0902344 0.0483398 0 -0.0580078 -0.103125 -0.103125 -0.0805664 -0.0225586 0.0225586 0.0773437 0.0773437 0.0612305 0.00966797 -0.0515625 -0.103125 -0.103125 -0.093457 -0.0257812 0.0225586 0.0773437 0.0805664 0.0483398 0 -0.0644531 -0.103125 -0.125684 -0.0999023 -0.0257812 0.0225586 0.0773437 0.0902344 0.0612305 0.0193359 -0.0515625 -0.103125 -0.103125 -0.0999023 -0.0418945 0.0225586 0.0773437 0.0773437 0.0225586 -0.00644531 -0.0644531 -0.093457 -0.103125 -0.093457 -0.0322266 0.0225586 0.0966797 0.0999023 0.0612305 0.00966797 -0.0483398 -0.103125 -0.10957 -0.0515625 0.00966797 0.0773437 0.112793 0.112793 0.0773437 0.0386719 -0.0483398 -0.128906 -0.15791 -0.0515625 0.125684 0.164355 0.193359 0.0773437 0.0483398 0.0773437 0.0999023 0 -0.125684 -0.0999023 -0.0257812 0.0225586 0.0773437 0.0902344 0.0612305 0.0193359 -0.0515625 -0.103125 -0.103125 -0.0999023 -0.0418945 0.0225586 0.0773437 0.0773437 0.0225586 -0.00644531 -0.0644531 -0.093457 -0.103125 -0.093457 -0.0322266 0.0225586 0.0966797 0.0999023 0.0612305 0.00966797 -0.0483398 -0.103125 -0.10957 -0.0515625 0.00966797 0.0773437 0.112793 0.112793 0.0773437 0.0386719 -0.0483398 -0.128906 -0.15791 -0.0515625 0.125684 0.164355 0.193359 0.0773437 0.0483398 0.0773437 0.0999023 -0.0999023 -0.25459 -0.219141 -0.14502 0.00322266 0.370605 0.331934 0.180469 -0.35127 -0.409277 -0.393164 -0.232031 -0.212695 -0.77666 -0.264258 0.203027 0.309375 -0.0483398 -0.589746 0.164355 0.525293 0.125684 0.00966797 -0.454395 0.203027 0.406055 0.406055 0.46084 0.283594 0.386719 0.0225586 -0.15791 -0.0483398 -0.116016 0.112793 0.0193359 -0.0805664 0.0708984 -0.928125 -1.36641 -0.464062 0.0386719 -0.599414 -0.641309 0.244922 0.46084 0.744434 -0.093457 0.0805664 -0.15791 0 -0.25459 -0.219141 -0.14502 0.00322266 0.370605 0.331934 0.180469 -0.35127 -0.409277 -0.393164 -0.232031 -0.212695 -0.77666 -0.264258 0.203027 0.309375 -0.0483398 -0.589746 0.164355 0.525293 0.125684 0.00966797 -0.454395 0.203027 0.406055 0.406055 0.46084 0.283594 0.386719 0.0225586 -0.15791 -0.0483398 -0.116016 0.112793 0.0193359 -0.0805664 0.0708984 -0.928125 -1.36641 -0.464062 0.0386719 -0.599414 -0.641309 0.244922 0.46084 0.744434 -0.093457 0.0805664 -0.15791 -0.976465 -0.312598 0.0612305 0.966797 1.26006 0.989355 0.15791 -0.286816 -0.55752 -0.725098 -1.07314 -0.438281 0.360937 0.783105 0.409277 0.0966797 -0.0128906 0.0773437 0.0805664 0.0225586 -0.389941 -0.425391 -0.290039 -0.00322266 0.309375 0.0225586 0.283594 0.554297 0.0451172 -0.0386719 0.180469 -0.493066 -0.0515625 0.228809 0.319043 0.36416 0.26748 -0.373828 -0.454395 -0.0999023 -0.0805664 0.360937 0.409277 0.122461 -0.476953 -0.203027 -0.15791 -0.0644531 -0.0128906 -0.0805664 0 -0.312598 0.0612305 0.966797 1.26006 0.989355 0.15791 -0.286816 -0.55752 -0.725098 -1.07314 -0.438281 0.360937 0.783105 0.409277 0.0966797 -0.0128906 0.0773437 0.0805664 0.0225586 -0.389941 -0.425391 -0.290039 -0.00322266 0.309375 0.0225586 0.283594 0.554297 0.0451172 -0.0386719 0.180469 -0.493066 -0.0515625 0.228809 0.319043 0.36416 0.26748 -0.373828 -0.454395 -0.0999023 -0.0805664 0.360937 0.409277 0.122461 -0.476953 -0.203027 -0.15791 -0.0644531 -0.0128906 -0.0805664 -0.186914 -0.383496 -0.470508 -0.0257812 0.348047 0.451172 0.386719 0.228809 0.0386719 -0.10957 -0.286816 -0.312598 -0.0483398 0.0225586 0.132129 0.125684 0.0483398 -0.0128906 0 -0.0418945 -0.103125 -0.128906 -0.116016 -0.0805664 -0.0515625 0 0.0451172 0.00966797 -0.0418945 -0.0741211 -0.0805664 -0.0580078 -0.0128906 0.0483398 0.141797 0.0708984 0.0225586 -0.0644531 -0.0644531 -0.151465 -0.167578 -0.15791 -0.0805664 -0.00644531 0.0547852 0.0773437 0.0483398 0.00966797 0.0386719 0.0225586 0 -0.383496 -0.470508 -0.0257812 0.348047 0.451172 0.386719 0.228809 0.0386719 -0.10957 -0.286816 -0.312598 -0.0483398 0.0225586 0.132129 0.125684 0.0483398 -0.0128906 0 -0.0418945 -0.103125 -0.128906 -0.116016 -0.0805664 -0.0515625 0 0.0451172 0.00966797 -0.0418945 -0.0741211 -0.0805664 -0.0580078 -0.0128906 0.0483398 0.141797 0.0708984 0.0225586 -0.0644531 -0.0644531 -0.151465 -0.167578 -0.15791 -0.0805664 -0.00644531 0.0547852 0.0773437 0.0483398 0.00966797 0.0386719 0.0225586 -0.0483398 -0.0515625 -0.0644531 -0.0418945 -0.0257812 0.00322266 0.00966797 -0.00322266 -0.0418945 -0.0805664 -0.103125 -0.093457 -0.0741211 -0.0257812 -0.0257812 0 0.0483398 -0.00644531 -0.00644531 -0.0515625 -0.0805664 -0.0837891 -0.128906 -0.0483398 0.0225586 0.0483398 0.0483398 0.00966797 -0.00644531 -0.0483398 -0.103125 -0.116016 -0.0837891 -0.0515625 -0.0128906 0 0.0225586 0.0225586 -0.00644531 -0.0515625 -0.093457 -0.103125 -0.0805664 -0.0257812 0.0225586 0.0547852 0.0612305 0.0386719 -0.0418945 -0.0580078 0 -0.0515625 -0.0644531 -0.0418945 -0.0257812 0.00322266 0.00966797 -0.00322266 -0.0418945 -0.0805664 -0.103125 -0.093457 -0.0741211 -0.0257812 -0.0257812 0 0.0483398 -0.00644531 -0.00644531 -0.0515625 -0.0805664 -0.0837891 -0.128906 -0.0483398 0.0225586 0.0483398 0.0483398 0.00966797 -0.00644531 -0.0483398 -0.103125 -0.116016 -0.0837891 -0.0515625 -0.0128906 0 0.0225586 0.0225586 -0.00644531 -0.0515625 -0.093457 -0.103125 -0.0805664 -0.0257812 0.0225586 0.0547852 0.0612305 0.0386719 -0.0418945 -0.0580078 -0.103125 -0.116016 -0.0837891 -0.0483398 0.00966797 0.0483398 0.0773437 0.0483398 -0.00644531 -0.0580078 -0.103125 -0.103125 -0.0580078 -0.0257812 0.0451172 0.0773437 0.0999023 0.0612305 0.00966797 -0.0257812 -0.0805664 -0.0805664 -0.0483398 0 0.0773437 0.0902344 0.0773437 0.0483398 0.0225586 -0.0257812 -0.0741211 -0.0805664 -0.0741211 -0.0257812 0.0386719 0.0773437 0.0773437 0.0483398 -0.00322266 -0.0515625 -0.103125 -0.116016 -0.093457 -0.0257812 0.0225586 0.0547852 0.0547852 0.0483398 -0.00322266 -0.0644531 0 -0.116016 -0.0837891 -0.0483398 0.00966797 0.0483398 0.0773437 0.0483398 -0.00644531 -0.0580078 -0.103125 -0.103125 -0.0580078 -0.0257812 0.0451172 0.0773437 0.0999023 0.0612305 0.00966797 -0.0257812 -0.0805664 -0.0805664 -0.0483398 0 0.0773437 0.0902344 0.0773437 0.0483398 0.0225586 -0.0257812 -0.0741211 -0.0805664 -0.0741211 -0.0257812 0.0386719 0.0773437 0.0773437 0.0483398 -0.00322266 -0.0515625 -0.103125 -0.116016 -0.093457 -0.0257812 0.0225586 0.0547852 0.0547852 0.0483398 -0.00322266 -0.0644531 -0.116016 -0.128906 -0.0999023 -0.0418945 0.00966797 0.0483398 0.0612305 0.0483398 -0.00644531 -0.0547852 -0.103125 -0.125684 -0.0999023 -0.0418945 0.0451172 0.0773437 0.0483398 0.0483398 0 -0.0515625 -0.093457 -0.093457 -0.0644531 -0.0257812 0.0225586 0.0225586 0.0547852 0.0193359 0.00966797 -0.0257812 -0.0515625 -0.0580078 -0.0580078 -0.0257812 0.0225586 0.0612305 0.0483398 0.0483398 0.0193359 -0.0257812 -0.0644531 -0.0805664 -0.0644531 -0.0257812 0.0193359 0.0547852 0.0708984 0.0225586 -0.0128906 -0.0418945 0 -0.128906 -0.0999023 -0.0418945 0.00966797 0.0483398 0.0612305 0.0483398 -0.00644531 -0.0547852 -0.103125 -0.125684 -0.0999023 -0.0418945 0.0451172 0.0773437 0.0483398 0.0483398 0 -0.0515625 -0.093457 -0.093457 -0.0644531 -0.0257812 0.0225586 0.0225586 0.0547852 0.0193359 0.00966797 -0.0257812 -0.0515625 -0.0580078 -0.0580078 -0.0257812 0.0225586 0.0612305 0.0483398 0.0483398 0.0193359 -0.0257812 -0.0644531 -0.0805664 -0.0644531 -0.0257812 0.0193359 0.0547852 0.0708984 0.0225586 -0.0128906 -0.0418945 -0.0644531 -0.093457 -0.0644531 -0.0257812 0.0193359 0.0386719 0.0483398 0.0451172 0.00966797 -0.0515625 -0.0805664 -0.0999023 -0.0644531 -0.0257812 0.0193359 0.0386719 0.0386719 0.0225586 0.00322266 -0.0483398 -0.0837891 -0.093457 -0.0644531 -0.0322266 0.00966797 0.0386719 0.0612305 0.0451172 -0.00322266 -0.0418945 -0.0805664 -0.0805664 -0.0805664 -0.0257812 0.0225586 0.0386719 0.0612305 0.0451172 0.00966797 -0.0418945 -0.0805664 -0.093457 -0.0644531 -0.0128906 0.0225586 0 0.0773437 0.0483398 0.00966797 -0.0418945 0 -0.093457 -0.0644531 -0.0257812 0.0193359 0.0386719 0.0483398 0.0451172 0.00966797 -0.0515625 -0.0805664 -0.0999023 -0.0644531 -0.0257812 0.0193359 0.0386719 0.0386719 0.0225586 0.00322266 -0.0483398 -0.0837891 -0.093457 -0.0644531 -0.0322266 0.00966797 0.0386719 0.0612305 0.0451172 -0.00322266 -0.0418945 -0.0805664 -0.0805664 -0.0805664 -0.0257812 0.0225586 0.0386719 0.0612305 0.0451172 0.00966797 -0.0418945 -0.0805664 -0.093457 -0.0644531 -0.0128906 0.0225586 0 0.0773437 0.0483398 0.00966797 -0.0418945 -0.0741211 -0.093457 -0.0515625 -0.0257812 0.0225586 0.0225586 0.0225586 0.0225586 0.0193359 -0.0257812 -0.0644531 -0.093457 -0.0741211 -0.0257812 0.0225586 0.0547852 0.0547852 0.0386719 -0.00322266 -0.0418945 -0.0805664 -0.0805664 -0.0805664 -0.0257812 0.0225586 0.0290039 0.0483398 0.0386719 0.0193359 -0.0322266 -0.0805664 -0.093457 -0.0805664 -0.0257812 0.00966797 0.0547852 0.0773437 0.0483398 0 -0.0418945 -0.0676758 -0.0805664 -0.0644531 -0.0515625 0.00966797 0.0773437 0.0902344 0.0483398 0.00966797 -0.0515625 0 -0.093457 -0.0515625 -0.0257812 0.0225586 0.0225586 0.0225586 0.0225586 0.0193359 -0.0257812 -0.0644531 -0.093457 -0.0741211 -0.0257812 0.0225586 0.0547852 0.0547852 0.0386719 -0.00322266 -0.0418945 -0.0805664 -0.0805664 -0.0805664 -0.0257812 0.0225586 0.0290039 0.0483398 0.0386719 0.0193359 -0.0322266 -0.0805664 -0.093457 -0.0805664 -0.0257812 0.00966797 0.0547852 0.0773437 0.0483398 0 -0.0418945 -0.0676758 -0.0805664 -0.0644531 -0.0515625 0.00966797 0.0773437 0.0902344 0.0483398 0.00966797 -0.0515625 -0.0805664 -0.093457 -0.0644531 -0.0418945 0.00966797 0.0483398 0.0612305 0.0451172 -0.00322266 -0.0483398 -0.0805664 -0.093457 -0.0805664 -0.0257812 0.00966797 0.0483398 0.0483398 0.0386719 0.00322266 -0.0483398 -0.0805664 -0.093457 -0.0644531 -0.0257812 0.00966797 0.0483398 0.0612305 0.0225586 0.00966797 -0.0418945 -0.093457 -0.093457 -0.0805664 -0.0257812 0.0193359 0.0612305 0.0612305 0.0386719 0 -0.0322266 -0.0805664 -0.0999023 -0.0515625 -0.0257812 0.00322266 0.0483398 0.0612305 0.0483398 0 -0.0515625 0 -0.093457 -0.0644531 -0.0418945 0.00966797 0.0483398 0.0612305 0.0451172 -0.00322266 -0.0483398 -0.0805664 -0.093457 -0.0805664 -0.0257812 0.00966797 0.0483398 0.0483398 0.0386719 0.00322266 -0.0483398 -0.0805664 -0.093457 -0.0644531 -0.0257812 0.00966797 0.0483398 0.0612305 0.0225586 0.00966797 -0.0418945 -0.093457 -0.093457 -0.0805664 -0.0257812 0.0193359 0.0612305 0.0612305 0.0386719 0 -0.0322266 -0.0805664 -0.0999023 -0.0515625 -0.0257812 0.00322266 0.0483398 0.0612305 0.0483398 0 -0.0515625 -0.0644531 -0.0805664 -0.0580078 -0.0257812 0.00966797 0.0483398 0.0612305 0.0451172 0 -0.0418945 -0.0644531 -0.093457 -0.0644531 -0.0225586 0.0225586 0.0386719 0.0483398 0.0386719 0.00966797 -0.0257812 -0.0805664 -0.0805664 -0.0805664 -0.0257812 0.0225586 0.0483398 0.0612305 0.0483398 0 -0.0418945 -0.0741211 -0.103125 -0.0805664 -0.0257812 0.0225586 0.0547852 0.0483398 0.0451172 -0.00322266 -0.0418945 -0.0805664 -0.0805664 -0.0741211 -0.0257812 0.00966797 0.0483398 0.0483398 0.0483398 0.00966797 -0.0418945 0 -0.0805664 -0.0580078 -0.0257812 0.00966797 0.0483398 0.0612305 0.0451172 0 -0.0418945 -0.0644531 -0.093457 -0.0644531 -0.0225586 0.0225586 0.0386719 0.0483398 0.0386719 0.00966797 -0.0257812 -0.0805664 -0.0805664 -0.0805664 -0.0257812 0.0225586 0.0483398 0.0612305 0.0483398 0 -0.0418945 -0.0741211 -0.103125 -0.0805664 -0.0257812 0.0225586 0.0547852 0.0483398 0.0451172 -0.00322266 -0.0418945 -0.0805664 -0.0805664 -0.0741211 -0.0257812 0.00966797 0.0483398 0.0483398 0.0483398 0.00966797 -0.0418945 -0.0805664 -0.093457 -0.0741211 -0.0257812 0.0225586 0.0483398 0.0612305 0.0386719 0 -0.0418945 -0.0805664 -0.103125 -0.0805664 -0.0386719 0.00966797 0.0547852 0.0708984 0.0386719 0 -0.0418945 -0.0805664 -0.093457 -0.0741211 -0.0257812 0.00966797 0.0451172 0.0612305 0.0386719 0 -0.0483398 -0.0805664 -0.0837891 -0.0644531 -0.0418945 0.00966797 0.0451172 0.0612305 0.0483398 0 -0.0515625 -0.0805664 -0.0805664 -0.0644531 -0.0257812 0.00966797 0.0483398 0.0451172 0.0386719 0.00966797 -0.0257812 0 -0.093457 -0.0741211 -0.0257812 0.0225586 0.0483398 0.0612305 0.0386719 0 -0.0418945 -0.0805664 -0.103125 -0.0805664 -0.0386719 0.00966797 0.0547852 0.0708984 0.0386719 0 -0.0418945 -0.0805664 -0.093457 -0.0741211 -0.0257812 0.00966797 0.0451172 0.0612305 0.0386719 0 -0.0483398 -0.0805664 -0.0837891 -0.0644531 -0.0418945 0.00966797 0.0451172 0.0612305 0.0483398 0 -0.0515625 -0.0805664 -0.0805664 -0.0644531 -0.0257812 0.00966797 0.0483398 0.0451172 0.0386719 0.00966797 -0.0257812 -0.0837891 -0.0837891 -0.0741211 -0.0257812 0.0193359 0.0483398 0.0483398 0.0451172 0.00322266 -0.0418945 -0.0805664 -0.0837891 -0.0644531 -0.0418945 0.0193359 0.0483398 0.0612305 0.0483398 0.0225586 -0.0515625 -0.0805664 -0.093457 -0.0741211 -0.0257812 0.00966797 0.0483398 0.0547852 0.0386719 0 -0.0418945 -0.0805664 -0.0837891 -0.0644531 -0.0257812 0.00966797 0.0483398 0.0708984 0.0451172 -0.00322266 -0.0483398 -0.0741211 -0.0837891 -0.0644531 -0.0257812 0.0386719 0.0483398 0.0483398 0.0386719 0.00322266 -0.0418945 0 -0.0837891 -0.0741211 -0.0257812 0.0193359 0.0483398 0.0483398 0.0451172 0.00322266 -0.0418945 -0.0805664 -0.0837891 -0.0644531 -0.0418945 0.0193359 0.0483398 0.0612305 0.0483398 0.0225586 -0.0515625 -0.0805664 -0.093457 -0.0741211 -0.0257812 0.00966797 0.0483398 0.0547852 0.0386719 0 -0.0418945 -0.0805664 -0.0837891 -0.0644531 -0.0257812 0.00966797 0.0483398 0.0708984 0.0451172 -0.00322266 -0.0483398 -0.0741211 -0.0837891 -0.0644531 -0.0257812 0.0386719 0.0483398 0.0483398 0.0386719 0.00322266 -0.0418945 -0.0805664 -0.0837891 -0.0805664 -0.0257812 0.0225586 0.0483398 0.0612305 0.0386719 0 -0.0257812 -0.0805664 -0.0999023 -0.0805664 -0.0225586 0.0225586 0.0483398 0.0547852 0.0386719 0.00322266 -0.0418945 -0.0805664 -0.103125 -0.0741211 -0.0257812 0.0193359 0.0483398 0.0708984 0.0483398 0.00966797 -0.0515625 -0.0805664 -0.093457 -0.0805664 -0.0418945 0.0225586 0.0386719 0.0612305 0.0225586 0.00966797 -0.0257812 -0.0805664 -0.0999023 -0.0741211 -0.0322266 0.00322266 0.0290039 0.0451172 0.0386719 0.0193359 -0.0322266 0 -0.0837891 -0.0805664 -0.0257812 0.0225586 0.0483398 0.0612305 0.0386719 0 -0.0257812 -0.0805664 -0.0999023 -0.0805664 -0.0225586 0.0225586 0.0483398 0.0547852 0.0386719 0.00322266 -0.0418945 -0.0805664 -0.103125 -0.0741211 -0.0257812 0.0193359 0.0483398 0.0708984 0.0483398 0.00966797 -0.0515625 -0.0805664 -0.093457 -0.0805664 -0.0418945 0.0225586 0.0386719 0.0612305 0.0225586 0.00966797 -0.0257812 -0.0805664 -0.0999023 -0.0741211 -0.0322266 0.00322266 0.0290039 0.0451172 0.0386719 0.0193359 -0.0322266 -0.0741211 -0.0805664 -0.0580078 -0.0257812 0.00322266 0.0386719 0.0483398 0.0386719 0.0225586 -0.0257812 -0.0644531 -0.0805664 -0.0644531 -0.0257812 0 0.0386719 0.0483398 0.0290039 0.0225586 -0.0322266 -0.0741211 -0.0805664 -0.0805664 -0.0257812 0.0225586 0.0483398 0.0483398 0.0386719 0.00322266 -0.0322266 -0.0805664 -0.093457 -0.0741211 -0.0257812 0 0.0386719 0.0483398 0.0225586 0.00322266 -0.0257812 -0.0644531 -0.093457 -0.0741211 -0.0257812 0.00966797 0.0386719 0.0483398 0.0483398 0 -0.0322266 0 -0.0805664 -0.0580078 -0.0257812 0.00322266 0.0386719 0.0483398 0.0386719 0.0225586 -0.0257812 -0.0644531 -0.0805664 -0.0644531 -0.0257812 0 0.0386719 0.0483398 0.0290039 0.0225586 -0.0322266 -0.0741211 -0.0805664 -0.0805664 -0.0257812 0.0225586 0.0483398 0.0483398 0.0386719 0.00322266 -0.0322266 -0.0805664 -0.093457 -0.0741211 -0.0257812 0 0.0386719 0.0483398 0.0225586 0.00322266 -0.0257812 -0.0644531 -0.093457 -0.0741211 -0.0257812 0.00966797 0.0386719 0.0483398 0.0483398 0 -0.0322266 -0.0805664 -0.0805664 -0.0805664 -0.0483398 0 0.0483398 0.0483398 0.0451172 0.00322266 -0.0257812 -0.0805664 -0.0805664 -0.0741211 -0.0322266 0.0225586 0.0451172 0.0547852 0.0451172 0 -0.0418945 -0.0805664 -0.0837891 -0.0805664 -0.0322266 0.0193359 0.0483398 0.0612305 0.0386719 0.00966797 -0.0322266 -0.0805664 -0.0837891 -0.0580078 -0.0257812 0.00966797 0.0386719 0.0612305 0.0386719 0.00966797 -0.0257812 -0.0741211 -0.093457 -0.0580078 -0.0257812 0.00966797 0.0483398 0.0483398 0.0386719 0.00322266 -0.0418945 0 -0.0805664 -0.0805664 -0.0483398 0 0.0483398 0.0483398 0.0451172 0.00322266 -0.0257812 -0.0805664 -0.0805664 -0.0741211 -0.0322266 0.0225586 0.0451172 0.0547852 0.0451172 0 -0.0418945 -0.0805664 -0.0837891 -0.0805664 -0.0322266 0.0193359 0.0483398 0.0612305 0.0386719 0.00966797 -0.0322266 -0.0805664 -0.0837891 -0.0580078 -0.0257812 0.00966797 0.0386719 0.0612305 0.0386719 0.00966797 -0.0257812 -0.0741211 -0.093457 -0.0580078 -0.0257812 0.00966797 0.0483398 0.0483398 0.0386719 0.00322266 -0.0418945 -0.0805664 -0.093457 -0.0644531 -0.0257812 0.00966797 0.0451172 0.0483398 0.0386719 0.00966797 -0.0483398 -0.0805664 -0.0805664 -0.0644531 -0.0257812 0.00966797 0.0451172 0.0483398 0.0483398 0 -0.0257812 -0.0676758 -0.0805664 -0.0805664 -0.0257812 0.00966797 0.0451172 0.0483398 0.0386719 0.00966797 -0.0386719 -0.0805664 -0.0837891 -0.0644531 -0.0257812 0.0193359 0.0483398 0.0547852 0.0290039 0 -0.0257812 -0.0741211 -0.093457 -0.0644531 -0.0257812 0.0225586 0.0386719 0.0612305 0.0386719 0.00966797 -0.0257812 0 -0.093457 -0.0644531 -0.0257812 0.00966797 0.0451172 0.0483398 0.0386719 0.00966797 -0.0483398 -0.0805664 -0.0805664 -0.0644531 -0.0257812 0.00966797 0.0451172 0.0483398 0.0483398 0 -0.0257812 -0.0676758 -0.0805664 -0.0805664 -0.0257812 0.00966797 0.0451172 0.0483398 0.0386719 0.00966797 -0.0386719 -0.0805664 -0.0837891 -0.0644531 -0.0257812 0.0193359 0.0483398 0.0547852 0.0290039 0 -0.0257812 -0.0741211 -0.093457 -0.0644531 -0.0257812 0.0225586 0.0386719 0.0612305 0.0386719 0.00966797 -0.0257812 -0.0805664 -0.0805664 -0.0644531 -0.0257812 0.00966797 0.0386719 0.0483398 0.0290039 0.00966797 -0.0257812 -0.0741211 -0.0805664 -0.0741211 -0.0418945 0.00966797 0.0386719 0.0483398 0.0451172 0.0225586 -0.0322266 -0.0805664 -0.0805664 -0.0741211 -0.0257812 0.00322266 0.0386719 0.0451172 0.0386719 0.00322266 -0.0257812 -0.0644531 -0.0837891 -0.0644531 -0.0322266 0.00966797 0.0225586 0.0386719 0.0483398 0.00966797 -0.0322266 -0.0805664 -0.0805664 -0.0805664 -0.0257812 0.00966797 0.0386719 0.0483398 0.0386719 0.00322266 -0.0322266 0 -0.0805664 -0.0644531 -0.0257812 0.00966797 0.0386719 0.0483398 0.0290039 0.00966797 -0.0257812 -0.0741211 -0.0805664 -0.0741211 -0.0418945 0.00966797 0.0386719 0.0483398 0.0451172 0.0225586 -0.0322266 -0.0805664 -0.0805664 -0.0741211 -0.0257812 0.00322266 0.0386719 0.0451172 0.0386719 0.00322266 -0.0257812 -0.0644531 -0.0837891 -0.0644531 -0.0322266 0.00966797 0.0225586 0.0386719 0.0483398 0.00966797 -0.0322266 -0.0805664 -0.0805664 -0.0805664 -0.0257812 0.00966797 0.0386719 0.0483398 0.0386719 0.00322266 -0.0322266 -0.0644531 -0.0805664 -0.0644531 -0.0418945 0.00966797 0.0451172 0.0483398 0.0386719 0.00966797 -0.0257812 -0.0805664 -0.0837891 -0.0644531 -0.0128906 0.00966797 0.0386719 0.0386719 0.0451172 0.0290039 -0.0418945 -0.0805664 -0.0805664 -0.0580078 -0.0257812 0.0225586 0.0483398 0.0386719 0.0483398 0.0225586 -0.00322266 -0.0128906 -0.0515625 -0.0805664 -0.0515625 0.0483398 0.0451172 0.193359 0.225586 0.0773437 0.00322266 -0.0644531 0.0225586 -0.20625 -0.35127 -0.20625 -0.493066 -0.470508 -0.512402 -0.55752 -0.299707 0 -0.0805664 -0.0644531 -0.0418945 0.00966797 0.0451172 0.0483398 0.0386719 0.00966797 -0.0257812 -0.0805664 -0.0837891 -0.0644531 -0.0128906 0.00966797 0.0386719 0.0386719 0.0451172 0.0290039 -0.0418945 -0.0805664 -0.0805664 -0.0580078 -0.0257812 0.0225586 0.0483398 0.0386719 0.0483398 0.0225586 -0.00322266 -0.0128906 -0.0515625 -0.0805664 -0.0515625 0.0483398 0.0451172 0.193359 0.225586 0.0773437 0.00322266 -0.0644531 0.0225586 -0.20625 -0.35127 -0.20625 -0.493066 -0.470508 -0.512402 -0.55752 -0.299707 0.125684 0.66709 1.00869 0.663867 -0.125684 -0.373828 -0.644531 0.154687 -0.712207 0.244922 0.534961 0.360937 0.725098 0.741211 0.409277 0.251367 0.696094 0.641309 0.122461 -1.05703 -1.36641 -0.493066 -0.0580078 0.309375 0.360937 0.493066 -0.0257812 -0.77666 -1.38252 -1.28584 -0.444727 0.409277 0.915234 0.92168 0.783105 0.46084 0.0386719 0.0225586 0.0902344 -0.609082 -0.563965 -0.335156 0.354492 0.331934 -0.286816 -0.725098 -0.116016 0.309375 0.360937 -0.257812 0 0.66709 1.00869 0.663867 -0.125684 -0.373828 -0.644531 0.154687 -0.712207 0.244922 0.534961 0.360937 0.725098 0.741211 0.409277 0.251367 0.696094 0.641309 0.122461 -1.05703 -1.36641 -0.493066 -0.0580078 0.309375 0.360937 0.493066 -0.0257812 -0.77666 -1.38252 -1.28584 -0.444727 0.409277 0.915234 0.92168 0.783105 0.46084 0.0386719 0.0225586 0.0902344 -0.609082 -0.563965 -0.335156 0.354492 0.331934 -0.286816 -0.725098 -0.116016 0.309375 0.360937 -0.257812 -0.286816 -0.167578 -0.186914 0.141797 0.338379 0.567187 -0.00322266 -0.20625 -0.183691 -0.493066 -0.103125 -0.35127 -0.770215 0.348047 1.00547 1.10859 0.663867 -0.125684 -0.0128906 0.331934 0.441504 0.164355 -0.128906 -0.270703 -0.257812 -0.167578 -0.15791 -0.196582 -0.505957 -0.4125 -0.257812 -0.335156 -0.183691 -0.505957 -0.196582 -0.367383 -0.464062 0.0612305 0.0773437 0.0773437 0.225586 0.431836 0.331934 0.354492 0.409277 0.180469 0.331934 0.235254 0.0451172 -0.0225586 0 -0.167578 -0.186914 0.141797 0.338379 0.567187 -0.00322266 -0.20625 -0.183691 -0.493066 -0.103125 -0.35127 -0.770215 0.348047 1.00547 1.10859 0.663867 -0.125684 -0.0128906 0.331934 0.441504 0.164355 -0.128906 -0.270703 -0.257812 -0.167578 -0.15791 -0.196582 -0.505957 -0.4125 -0.257812 -0.335156 -0.183691 -0.505957 -0.196582 -0.367383 -0.464062 0.0612305 0.0773437 0.0773437 0.225586 0.431836 0.331934 0.354492 0.409277 0.180469 0.331934 0.235254 0.0451172 -0.0225586 -0.0999023 -0.25459 -0.20625 -0.0999023 -0.0257812 0.125684 0.0483398 -0.0418945 -0.0805664 -0.116016 -0.36416 -0.286816 -0.299707 -0.20625 0.0773437 -0.0128906 -0.0483398 0.0483398 -0.203027 -0.36416 0.00966797 -0.0580078 0.0966797 0.331934 0.370605 0.203027 0.0902344 0.0225586 -0.0483398 -0.0483398 -0.0805664 -0.00322266 -0.0418945 -0.116016 -0.0805664 -0.103125 -0.00322266 -0.0644531 0.0193359 -0.0225586 -0.0805664 -0.0837891 -0.093457 -0.0580078 -0.0225586 0.00322266 -0.0225586 -0.0128906 0 -0.0225586 0 -0.25459 -0.20625 -0.0999023 -0.0257812 0.125684 0.0483398 -0.0418945 -0.0805664 -0.116016 -0.36416 -0.286816 -0.299707 -0.20625 0.0773437 -0.0128906 -0.0483398 0.0483398 -0.203027 -0.36416 0.00966797 -0.0580078 0.0966797 0.331934 0.370605 0.203027 0.0902344 0.0225586 -0.0483398 -0.0483398 -0.0805664 -0.00322266 -0.0418945 -0.116016 -0.0805664 -0.103125 -0.00322266 -0.0644531 0.0193359 -0.0225586 -0.0805664 -0.0837891 -0.093457 -0.0580078 -0.0225586 0.00322266 -0.0225586 -0.0128906 0 -0.0225586 -0.0805664 -0.0805664 -0.0644531 0 -0.0128906 -0.0257812 -0.0515625 -0.0515625 -0.0837891 -0.0580078 -0.0805664 -0.0418945 -0.0128906 -0.00322266 0.0451172 0.0999023 0.0999023 0.0386719 -0.00644531 -0.0547852 -0.125684 -0.14502 -0.125684 -0.0644531 -0.0225586 0.0225586 0.0483398 0.0483398 0.00966797 -0.0580078 -0.10957 -0.093457 -0.128906 -0.0741211 -0.0257812 0.0451172 0.0773437 0.0483398 -0.00644531 -0.0515625 -0.093457 -0.103125 -0.0837891 -0.0257812 0.00966797 0.0902344 0.0773437 0.0290039 0.0193359 -0.0483398 0 -0.0805664 -0.0644531 0 -0.0128906 -0.0257812 -0.0515625 -0.0515625 -0.0837891 -0.0580078 -0.0805664 -0.0418945 -0.0128906 -0.00322266 0.0451172 0.0999023 0.0999023 0.0386719 -0.00644531 -0.0547852 -0.125684 -0.14502 -0.125684 -0.0644531 -0.0225586 0.0225586 0.0483398 0.0483398 0.00966797 -0.0580078 -0.10957 -0.093457 -0.128906 -0.0741211 -0.0257812 0.0451172 0.0773437 0.0483398 -0.00644531 -0.0515625 -0.093457 -0.103125 -0.0837891 -0.0257812 0.00966797 0.0902344 0.0773437 0.0290039 0.0193359 -0.0483398 -0.0999023 -0.116016 -0.093457 -0.0257812 -0.00322266 0.0451172 0.0483398 0.0483398 0.0225586 -0.0257812 -0.128906 -0.128906 -0.103125 -0.0418945 0.00966797 0.0290039 0.0386719 0.0225586 -0.00644531 -0.0547852 -0.093457 -0.10957 -0.10957 -0.0515625 -0.00322266 0.0386719 0.0483398 0.0483398 0 -0.0515625 -0.0805664 -0.103125 -0.0805664 -0.0322266 0.00966797 0.0225586 0.0612305 0.0451172 -0.0128906 -0.0257812 -0.0741211 -0.0805664 -0.0999023 -0.0515625 0 0.0225586 0.0193359 0 0.00322266 -0.0257812 0 -0.116016 -0.093457 -0.0257812 -0.00322266 0.0451172 0.0483398 0.0483398 0.0225586 -0.0257812 -0.128906 -0.128906 -0.103125 -0.0418945 0.00966797 0.0290039 0.0386719 0.0225586 -0.00644531 -0.0547852 -0.093457 -0.10957 -0.10957 -0.0515625 -0.00322266 0.0386719 0.0483398 0.0483398 0 -0.0515625 -0.0805664 -0.103125 -0.0805664 -0.0322266 0.00966797 0.0225586 0.0612305 0.0451172 -0.0128906 -0.0257812 -0.0741211 -0.0805664 -0.0999023 -0.0515625 0 0.0225586 0.0193359 0 0.00322266 -0.0257812 -0.0644531 -0.0644531 -0.0515625 -0.0418945 0.0225586 0.0451172 0.0225586 0.0225586 0.0128906 -0.0257812 -0.0515625 -0.0644531 -0.0644531 -0.0322266 0.0225586 0.0290039 0.0451172 0.0386719 0.0193359 -0.0128906 -0.0515625 -0.0515625 -0.0418945 -0.00644531 0.00322266 0.00966797 0.0225586 0.0225586 0.00966797 -0.0225586 -0.0322266 -0.0515625 -0.0580078 -0.0225586 0.00966797 0.0451172 0.0225586 0.00966797 0.00966797 -0.0128906 -0.0644531 -0.0741211 -0.0515625 -0.0322266 0.00322266 0.0225586 0.0290039 0.0386719 0.0225586 -0.0257812 0 -0.0644531 -0.0515625 -0.0418945 0.0225586 0.0451172 0.0225586 0.0225586 0.0128906 -0.0257812 -0.0515625 -0.0644531 -0.0644531 -0.0322266 0.0225586 0.0290039 0.0451172 0.0386719 0.0193359 -0.0128906 -0.0515625 -0.0515625 -0.0418945 -0.00644531 0.00322266 0.00966797 0.0225586 0.0225586 0.00966797 -0.0225586 -0.0322266 -0.0515625 -0.0580078 -0.0225586 0.00966797 0.0451172 0.0225586 0.00966797 0.00966797 -0.0128906 -0.0644531 -0.0741211 -0.0515625 -0.0322266 0.00322266 0.0225586 0.0290039 0.0386719 0.0225586 -0.0257812 -0.0580078 -0.0805664 -0.0580078 -0.0257812 0.0193359 0.0386719 0.0386719 0.0225586 0 -0.0128906 -0.0515625 -0.0741211 -0.0580078 -0.0322266 0.00966797 0.0225586 0.00966797 0.0225586 0.0225586 -0.0128906 -0.0515625 -0.0805664 -0.0515625 -0.0257812 0.0225586 0.0483398 0.0612305 0.0225586 -0.00322266 -0.0418945 -0.0805664 -0.0837891 -0.0644531 -0.0257812 0 0.0483398 0.0612305 0.0483398 -0.00322266 -0.0418945 -0.0805664 -0.093457 -0.0837891 -0.0483398 0.00322266 0.0386719 0.0483398 0.0483398 -0.00322266 -0.0483398 0 -0.0805664 -0.0580078 -0.0257812 0.0193359 0.0386719 0.0386719 0.0225586 0 -0.0128906 -0.0515625 -0.0741211 -0.0580078 -0.0322266 0.00966797 0.0225586 0.00966797 0.0225586 0.0225586 -0.0128906 -0.0515625 -0.0805664 -0.0515625 -0.0257812 0.0225586 0.0483398 0.0612305 0.0225586 -0.00322266 -0.0418945 -0.0805664 -0.0837891 -0.0644531 -0.0257812 0 0.0483398 0.0612305 0.0483398 -0.00322266 -0.0418945 -0.0805664 -0.093457 -0.0837891 -0.0483398 0.00322266 0.0386719 0.0483398 0.0483398 -0.00322266 -0.0483398 -0.0805664 -0.0999023 -0.0644531 -0.0257812 -0.00322266 0.0386719 0.0483398 0.0386719 0 -0.0257812 -0.0805664 -0.0999023 -0.0644531 -0.0128906 0.0193359 0.0483398 0.0612305 0.0451172 0.00966797 -0.0418945 -0.0805664 -0.093457 -0.0644531 -0.0322266 0.00966797 0.0451172 0.0612305 0.0386719 0 -0.0257812 -0.0515625 -0.0805664 -0.0805664 -0.0257812 0.00966797 0.0193359 0.0483398 0.0386719 0.00966797 -0.0257812 -0.0805664 -0.0805664 -0.0580078 -0.0257812 0.0193359 0.0483398 0.0612305 0.0483398 0 -0.0257812 0 -0.0999023 -0.0644531 -0.0257812 -0.00322266 0.0386719 0.0483398 0.0386719 0 -0.0257812 -0.0805664 -0.0999023 -0.0644531 -0.0128906 0.0193359 0.0483398 0.0612305 0.0451172 0.00966797 -0.0418945 -0.0805664 -0.093457 -0.0644531 -0.0322266 0.00966797 0.0451172 0.0612305 0.0386719 0 -0.0257812 -0.0515625 -0.0805664 -0.0805664 -0.0257812 0.00966797 0.0193359 0.0483398 0.0386719 0.00966797 -0.0257812 -0.0805664 -0.0805664 -0.0580078 -0.0257812 0.0193359 0.0483398 0.0612305 0.0483398 0 -0.0257812 -0.0805664 -0.0805664 -0.0644531 -0.0257812 0.0225586 0.0386719 0.0612305 0.0451172 0.00966797 -0.0257812 -0.0644531 -0.0805664 -0.0644531 -0.0322266 0.00966797 0.0451172 0.0483398 0.0483398 -0.00322266 -0.0257812 -0.0805664 -0.0805664 -0.0580078 -0.0257812 0.00322266 0.0225586 0.0386719 0.0225586 0.0193359 -0.0257812 -0.0805664 -0.0805664 -0.0741211 -0.0257812 0.0225586 0.0290039 0.0483398 0.0386719 0.0128906 -0.0257812 -0.0644531 -0.0741211 -0.0515625 -0.0418945 0.00322266 0.0225586 0.0451172 0.0290039 0.00966797 -0.0257812 0 -0.0805664 -0.0644531 -0.0257812 0.0225586 0.0386719 0.0612305 0.0451172 0.00966797 -0.0257812 -0.0644531 -0.0805664 -0.0644531 -0.0322266 0.00966797 0.0451172 0.0483398 0.0483398 -0.00322266 -0.0257812 -0.0805664 -0.0805664 -0.0580078 -0.0257812 0.00322266 0.0225586 0.0386719 0.0225586 0.0193359 -0.0257812 -0.0805664 -0.0805664 -0.0741211 -0.0257812 0.0225586 0.0290039 0.0483398 0.0386719 0.0128906 -0.0257812 -0.0644531 -0.0741211 -0.0515625 -0.0418945 0.00322266 0.0225586 0.0451172 0.0290039 0.00966797 -0.0257812 -0.0515625 -0.0580078 -0.0644531 -0.0257812 0 0.0193359 0.0386719 0.0290039 0 -0.0257812 -0.0805664 -0.0805664 -0.0515625 -0.0257812 0.00966797 0.0225586 0.0386719 0.0290039 0.00322266 -0.0257812 -0.0805664 -0.0805664 -0.0580078 -0.0257812 0 0.0225586 0.0483398 0.0290039 -0.00322266 -0.0257812 -0.0644531 -0.0805664 -0.0644531 -0.0257812 -0.00322266 0.0225586 0.0290039 0 0 -0.0128906 -0.0515625 -0.0644531 -0.0547852 -0.0257812 0.0225586 0.0225586 0.0451172 0.0386719 0.00966797 -0.0128906 0 -0.0580078 -0.0644531 -0.0257812 0 0.0193359 0.0386719 0.0290039 0 -0.0257812 -0.0805664 -0.0805664 -0.0515625 -0.0257812 0.00966797 0.0225586 0.0386719 0.0290039 0.00322266 -0.0257812 -0.0805664 -0.0805664 -0.0580078 -0.0257812 0 0.0225586 0.0483398 0.0290039 -0.00322266 -0.0257812 -0.0644531 -0.0805664 -0.0644531 -0.0257812 -0.00322266 0.0225586 0.0290039 0 0 -0.0128906 -0.0515625 -0.0644531 -0.0547852 -0.0257812 0.0225586 0.0225586 0.0451172 0.0386719 0.00966797 -0.0128906 -0.0515625 -0.0805664 -0.0515625 -0.0257812 -0.00322266 0.0225586 0.0483398 0.0386719 0.0193359 -0.0257812 -0.0515625 -0.0805664 -0.0644531 -0.0257812 0 0.0225586 0.0386719 0.0483398 0.00966797 -0.0257812 -0.0644531 -0.0805664 -0.0515625 -0.0257812 0.0225586 0.0386719 0.0483398 0.0386719 0.00966797 -0.0257812 -0.0580078 -0.0805664 -0.0644531 -0.0418945 -0.0128906 0.0386719 0.0225586 0.0193359 0.0225586 -0.0257812 -0.0644531 -0.0805664 -0.0515625 -0.0257812 -0.00322266 0.0225586 0.0386719 0.0225586 0 -0.0257812 0 -0.0805664 -0.0515625 -0.0257812 -0.00322266 0.0225586 0.0483398 0.0386719 0.0193359 -0.0257812 -0.0515625 -0.0805664 -0.0644531 -0.0257812 0 0.0225586 0.0386719 0.0483398 0.00966797 -0.0257812 -0.0644531 -0.0805664 -0.0515625 -0.0257812 0.0225586 0.0386719 0.0483398 0.0386719 0.00966797 -0.0257812 -0.0580078 -0.0805664 -0.0644531 -0.0418945 -0.0128906 0.0386719 0.0225586 0.0193359 0.0225586 -0.0257812 -0.0644531 -0.0805664 -0.0515625 -0.0257812 -0.00322266 0.0225586 0.0386719 0.0225586 0 -0.0257812 -0.0547852 -0.0644531 -0.0515625 -0.0257812 0.00322266 0.0128906 0.0386719 0.0225586 0.00966797 -0.0128906 -0.0515625 -0.0644531 -0.0580078 -0.0418945 -0.0128906 0.0225586 0.0225586 0.0483398 0.00966797 -0.0257812 -0.0515625 -0.0580078 -0.0483398 -0.0225586 0 0.0225586 0.0386719 0.0225586 0.00966797 -0.0257812 -0.0515625 -0.0580078 -0.0644531 -0.0257812 0.00322266 0.0225586 0.0386719 0.0225586 0.00966797 -0.0257812 -0.0515625 -0.0805664 -0.0644531 -0.0322266 -0.00322266 0.0386719 0.0451172 0.0290039 0.00322266 -0.0257812 0 -0.0644531 -0.0515625 -0.0257812 0.00322266 0.0128906 0.0386719 0.0225586 0.00966797 -0.0128906 -0.0515625 -0.0644531 -0.0580078 -0.0418945 -0.0128906 0.0225586 0.0225586 0.0483398 0.00966797 -0.0257812 -0.0515625 -0.0580078 -0.0483398 -0.0225586 0 0.0225586 0.0386719 0.0225586 0.00966797 -0.0257812 -0.0515625 -0.0580078 -0.0644531 -0.0257812 0.00322266 0.0225586 0.0386719 0.0225586 0.00966797 -0.0257812 -0.0515625 -0.0805664 -0.0644531 -0.0322266 -0.00322266 0.0386719 0.0451172 0.0290039 0.00322266 -0.0257812 -0.0515625 -0.0741211 -0.0515625 -0.0483398 0.00322266 0.0386719 0.0386719 0.0193359 0 -0.0257812 -0.0515625 -0.0644531 -0.0580078 -0.0257812 -0.00322266 0.0290039 0.0451172 0.0386719 0.00966797 -0.0257812 -0.0515625 -0.0644531 -0.0515625 -0.0257812 -0.00644531 0.0225586 0.0483398 0.0225586 0.0225586 -0.0257812 -0.0644531 -0.0644531 -0.0580078 -0.0322266 0.00322266 0.0225586 0.0386719 0.0193359 0.00966797 -0.0257812 -0.0515625 -0.0580078 -0.0515625 -0.0483398 -0.00322266 0.0225586 0.0386719 0.0290039 0.00966797 -0.0225586 0 -0.0741211 -0.0515625 -0.0483398 0.00322266 0.0386719 0.0386719 0.0193359 0 -0.0257812 -0.0515625 -0.0644531 -0.0580078 -0.0257812 -0.00322266 0.0290039 0.0451172 0.0386719 0.00966797 -0.0257812 -0.0515625 -0.0644531 -0.0515625 -0.0257812 -0.00644531 0.0225586 0.0483398 0.0225586 0.0225586 -0.0257812 -0.0644531 -0.0644531 -0.0580078 -0.0322266 0.00322266 0.0225586 0.0386719 0.0193359 0.00966797 -0.0257812 -0.0515625 -0.0580078 -0.0515625 -0.0483398 -0.00322266 0.0225586 0.0386719 0.0290039 0.00966797 -0.0225586 -0.0515625 -0.0644531 -0.0644531 -0.0257812 0.00322266 0.0225586 0.0386719 0.0225586 0.00322266 -0.0257812 -0.0515625 -0.0741211 -0.0644531 -0.0418945 0 0.0225586 0.0386719 0 0.00322266 -0.0257812 -0.0515625 -0.0644531 -0.0515625 -0.0322266 0 0.0225586 0.0386719 0.0451172 0.00966797 -0.0257812 -0.0515625 -0.0644531 -0.0644531 -0.0257812 -0.00322266 0.0225586 0.0386719 0.0225586 0.00966797 -0.0257812 -0.0483398 -0.0805664 -0.0644531 -0.0322266 0 0.0225586 0.0386719 0.0483398 0.00322266 -0.0418945 0 -0.0644531 -0.0644531 -0.0257812 0.00322266 0.0225586 0.0386719 0.0225586 0.00322266 -0.0257812 -0.0515625 -0.0741211 -0.0644531 -0.0418945 0 0.0225586 0.0386719 0 0.00322266 -0.0257812 -0.0515625 -0.0644531 -0.0515625 -0.0322266 0 0.0225586 0.0386719 0.0451172 0.00966797 -0.0257812 -0.0515625 -0.0644531 -0.0644531 -0.0257812 -0.00322266 0.0225586 0.0386719 0.0225586 0.00966797 -0.0257812 -0.0483398 -0.0805664 -0.0644531 -0.0322266 0 0.0225586 0.0386719 0.0483398 0.00322266 -0.0418945 -0.0515625 -0.0644531 -0.0644531 -0.0257812 -0.00644531 0.0225586 0.0386719 0.0225586 0 -0.0257812 -0.0515625 -0.0515625 -0.0580078 -0.0257812 -0.00322266 0.00966797 0.0386719 0.0225586 0.00322266 -0.0257812 -0.0515625 -0.0644531 -0.0515625 -0.0257812 0.00966797 0.0386719 0.0483398 0.0225586 0 -0.0257812 -0.0644531 -0.0644531 -0.0515625 -0.0257812 0 0.0225586 0.0386719 0.0225586 0.00966797 -0.0225586 -0.0580078 -0.0644531 -0.0515625 -0.0257812 0.00966797 0.0225586 0.0386719 0.0290039 0.00966797 -0.0225586 0 -0.0644531 -0.0644531 -0.0257812 -0.00644531 0.0225586 0.0386719 0.0225586 0 -0.0257812 -0.0515625 -0.0515625 -0.0580078 -0.0257812 -0.00322266 0.00966797 0.0386719 0.0225586 0.00322266 -0.0257812 -0.0515625 -0.0644531 -0.0515625 -0.0257812 0.00966797 0.0386719 0.0483398 0.0225586 0 -0.0257812 -0.0644531 -0.0644531 -0.0515625 -0.0257812 0 0.0225586 0.0386719 0.0225586 0.00966797 -0.0225586 -0.0580078 -0.0644531 -0.0515625 -0.0257812 0.00966797 0.0225586 0.0386719 0.0290039 0.00966797 -0.0225586 -0.0418945 -0.0580078 -0.0644531 -0.0515625 -0.00644531 0 0.0483398 0.0290039 0.00966797 -0.0257812 -0.0580078 -0.0644531 -0.0515625 -0.0257812 0.00322266 0.0225586 0.0386719 0.0225586 0.00966797 -0.0225586 -0.0515625 -0.0741211 -0.0580078 -0.0386719 -0.0128906 0.00966797 0.0290039 0.0225586 0.00322266 -0.0257812 -0.0483398 -0.0580078 -0.0580078 -0.0257812 0 0.0193359 0.0386719 0.0386719 0.0225586 -0.0257812 -0.0515625 -0.0644531 -0.0580078 -0.0418945 -0.00644531 0.00966797 0.0290039 0.0225586 0.0193359 -0.0128906 0 -0.0580078 -0.0644531 -0.0515625 -0.00644531 0 0.0483398 0.0290039 0.00966797 -0.0257812 -0.0580078 -0.0644531 -0.0515625 -0.0257812 0.00322266 0.0225586 0.0386719 0.0225586 0.00966797 -0.0225586 -0.0515625 -0.0741211 -0.0580078 -0.0386719 -0.0128906 0.00966797 0.0290039 0.0225586 0.00322266 -0.0257812 -0.0483398 -0.0580078 -0.0580078 -0.0257812 0 0.0193359 0.0386719 0.0386719 0.0225586 -0.0257812 -0.0515625 -0.0644531 -0.0580078 -0.0418945 -0.00644531 0.00966797 0.0290039 0.0225586 0.0193359 -0.0128906 -0.0386719 -0.0515625 -0.0515625 -0.0322266 -0.0225586 0.00966797 0 0.0225586 0.0225586 0 0.0225586 -0.0128906 -0.0257812 -0.116016 -0.0644531 -0.0257812 0.112793 0.154687 0.154687 0.0612305 0.0483398 0.141797 0 -0.0999023 -0.151465 -0.0257812 0.125684 -0.00322266 0.0225586 -0.20625 -0.0515625 -1.16016 -1.1376 -0.493066 0.0483398 0.296484 0.215918 0.696094 0.57041 0.296484 -0.116016 -0.644531 -0.505957 0.319043 1.02803 0.924902 0.592969 -0.196582 -0.264258 -0.464062 0 -0.0515625 -0.0515625 -0.0322266 -0.0225586 0.00966797 0 0.0225586 0.0225586 0 0.0225586 -0.0128906 -0.0257812 -0.116016 -0.0644531 -0.0257812 0.112793 0.154687 0.154687 0.0612305 0.0483398 0.141797 0 -0.0999023 -0.151465 -0.0257812 0.125684 -0.00322266 0.0225586 -0.20625 -0.0515625 -1.16016 -1.1376 -0.493066 0.0483398 0.296484 0.215918 0.696094 0.57041 0.296484 -0.116016 -0.644531 -0.505957 0.319043 1.02803 0.924902 0.592969 -0.196582 -0.264258 -0.464062 -0.248145 0 0.354492 0.331934 0.26748 -0.4125 -0.454395 -0.093457 0.141797 0.309375 -0.97002 -0.802441 -0.547852 -1.24072 -0.183691 -0.0837891 0.409277 0.863672 0.760547 0.863672 0.605859 -0.15791 -0.0515625 -0.0805664 -0.219141 -1.07959 -1.07314 -0.928125 -0.444727 -0.0257812 1.09248 1.49209 1.02803 1.05059 0.641309 0.0612305 0.0386719 -0.103125 -0.248145 -0.438281 -0.335156 -0.573633 -0.77666 -0.35127 0.296484 0.283594 0.122461 0.154687 0.0773437 0.112793 0 0 0.354492 0.331934 0.26748 -0.4125 -0.454395 -0.093457 0.141797 0.309375 -0.97002 -0.802441 -0.547852 -1.24072 -0.183691 -0.0837891 0.409277 0.863672 0.760547 0.863672 0.605859 -0.15791 -0.0515625 -0.0805664 -0.219141 -1.07959 -1.07314 -0.928125 -0.444727 -0.0257812 1.09248 1.49209 1.02803 1.05059 0.641309 0.0612305 0.0386719 -0.103125 -0.248145 -0.438281 -0.335156 -0.573633 -0.77666 -0.35127 0.296484 0.283594 0.122461 0.154687 0.0773437 0.112793 -0.00644531 -0.0128906 -0.0418945 0 0.0805664 -0.367383 -0.373828 -0.128906 0.183691 -0.4125 0.406055 -0.0128906 -0.128906 -0.103125 0 0.167578 0.00966797 -0.644531 -0.128906 0.0483398 0.228809 0.296484 0.370605 0.203027 0.0193359 0.0483398 0.309375 -0.476953 -0.541406 -0.52207 -0.438281 0.203027 -0.00644531 -0.0322266 0.0193359 0.309375 0.331934 0.180469 0.228809 0.112793 -0.116016 0.0225586 0.00322266 0.0225586 -0.0999023 -0.167578 -0.0128906 0.154687 0.0386719 0 0 -0.0128906 -0.0418945 0 0.0805664 -0.367383 -0.373828 -0.128906 0.183691 -0.4125 0.406055 -0.0128906 -0.128906 -0.103125 0 0.167578 0.00966797 -0.644531 -0.128906 0.0483398 0.228809 0.296484 0.370605 0.203027 0.0193359 0.0483398 0.309375 -0.476953 -0.541406 -0.52207 -0.438281 0.203027 -0.00644531 -0.0322266 0.0193359 0.309375 0.331934 0.180469 0.228809 0.112793 -0.116016 0.0225586 0.00322266 0.0225586 -0.0999023 -0.167578 -0.0128906 0.154687 0.0386719 0 -0.683203 -0.528516 -0.103125 0.183691 -0.203027 0.112793 0.251367 0.141797 0.0290039 -0.257812 -0.228809 0.125684 0.244922 -0.0644531 0.0612305 0.215918 0.0193359 -0.232031 0.312598 0.47373 0.180469 0.0225586 0.00966797 -0.177246 -0.454395 -0.389941 -0.0483398 0.0483398 -0.0805664 0.0193359 0.164355 -0.0515625 -0.0644531 0.0225586 0 -0.10957 0.0708984 -0.0128906 -0.0580078 -0.0805664 -0.093457 -0.0837891 -0.0386719 -0.0515625 0 0.0290039 0.0483398 -0.0225586 -0.0257812 -0.0225586 0 -0.528516 -0.103125 0.183691 -0.203027 0.112793 0.251367 0.141797 0.0290039 -0.257812 -0.228809 0.125684 0.244922 -0.0644531 0.0612305 0.215918 0.0193359 -0.232031 0.312598 0.47373 0.180469 0.0225586 0.00966797 -0.177246 -0.454395 -0.389941 -0.0483398 0.0483398 -0.0805664 0.0193359 0.164355 -0.0515625 -0.0644531 0.0225586 0 -0.10957 0.0708984 -0.0128906 -0.0580078 -0.0805664 -0.093457 -0.0837891 -0.0386719 -0.0515625 0 0.0290039 0.0483398 -0.0225586 -0.0257812 -0.0225586 -0.0257812 0.00966797 -0.0580078 -0.103125 -0.0515625 0.0612305 0.154687 0.164355 0.0805664 -0.0515625 -0.128906 -0.183691 -0.14502 -0.128906 -0.167578 -0.0805664 0.0386719 0.0805664 0.112793 0.0902344 0.0225586 -0.0515625 -0.0418945 0 0.0225586 0.0193359 0.0386719 0 -0.0418945 -0.0837891 -0.128906 -0.15791 -0.0999023 -0.0805664 -0.00644531 0.0290039 0.0483398 0.0290039 -0.0128906 -0.0644531 -0.093457 -0.103125 -0.103125 -0.0515625 -0.00322266 0.0225586 0.0612305 0.0451172 0.00966797 -0.0515625 0 0.00966797 -0.0580078 -0.103125 -0.0515625 0.0612305 0.154687 0.164355 0.0805664 -0.0515625 -0.128906 -0.183691 -0.14502 -0.128906 -0.167578 -0.0805664 0.0386719 0.0805664 0.112793 0.0902344 0.0225586 -0.0515625 -0.0418945 0 0.0225586 0.0193359 0.0386719 0 -0.0418945 -0.0837891 -0.128906 -0.15791 -0.0999023 -0.0805664 -0.00644531 0.0290039 0.0483398 0.0290039 -0.0128906 -0.0644531 -0.093457 -0.103125 -0.103125 -0.0515625 -0.00322266 0.0225586 0.0612305 0.0451172 0.00966797 -0.0515625 -0.103125 -0.103125 -0.0805664 -0.0257812 0.00966797 0.0386719 0.0483398 0.00966797 -0.00644531 -0.0515625 -0.0837891 -0.0999023 -0.093457 -0.0515625 0 0.0386719 0.0483398 0.00322266 -0.0257812 -0.0805664 -0.0999023 -0.093457 -0.0999023 -0.0644531 -0.0257812 0.00322266 0.0225586 0 -0.0128906 -0.0257812 -0.0676758 -0.0999023 -0.0805664 -0.0483398 0.00322266 0.0225586 0.0386719 0.0225586 0 -0.0257812 -0.0805664 -0.0644531 -0.0644531 -0.0257812 -0.00644531 0.0225586 0.0225586 0.0193359 -0.00322266 -0.0128906 0 -0.103125 -0.0805664 -0.0257812 0.00966797 0.0386719 0.0483398 0.00966797 -0.00644531 -0.0515625 -0.0837891 -0.0999023 -0.093457 -0.0515625 0 0.0386719 0.0483398 0.00322266 -0.0257812 -0.0805664 -0.0999023 -0.093457 -0.0999023 -0.0644531 -0.0257812 0.00322266 0.0225586 0 -0.0128906 -0.0257812 -0.0676758 -0.0999023 -0.0805664 -0.0483398 0.00322266 0.0225586 0.0386719 0.0225586 0 -0.0257812 -0.0805664 -0.0644531 -0.0644531 -0.0257812 -0.00644531 0.0225586 0.0225586 0.0193359 -0.00322266 -0.0128906 -0.0515625 -0.0580078 -0.0483398 -0.0257812 0 0.0193359 0.0225586 0.0386719 0.0193359 -0.0257812 -0.0515625 -0.0644531 -0.0418945 -0.00322266 0.0225586 0.0386719 0.0483398 0.0386719 0 -0.0322266 -0.0483398 -0.0644531 -0.0483398 -0.0128906 0.00966797 0.0290039 0.0483398 0.0451172 0.0193359 -0.00644531 -0.0741211 -0.0805664 -0.0644531 -0.0225586 0.0225586 0.0451172 0.0773437 0.0386719 -0.00322266 -0.0257812 -0.0644531 -0.0805664 -0.0644531 -0.0257812 0.0225586 0.0612305 0.0773437 0.0483398 0.00966797 -0.0322266 0 -0.0580078 -0.0483398 -0.0257812 0 0.0193359 0.0225586 0.0386719 0.0193359 -0.0257812 -0.0515625 -0.0644531 -0.0418945 -0.00322266 0.0225586 0.0386719 0.0483398 0.0386719 0 -0.0322266 -0.0483398 -0.0644531 -0.0483398 -0.0128906 0.00966797 0.0290039 0.0483398 0.0451172 0.0193359 -0.00644531 -0.0741211 -0.0805664 -0.0644531 -0.0225586 0.0225586 0.0451172 0.0773437 0.0386719 -0.00322266 -0.0257812 -0.0644531 -0.0805664 -0.0644531 -0.0257812 0.0225586 0.0612305 0.0773437 0.0483398 0.00966797 -0.0322266 -0.0741211 -0.093457 -0.0644531 -0.0257812 0 0.0451172 0.0483398 0.0225586 -0.00322266 -0.0515625 -0.0805664 -0.093457 -0.0805664 -0.0515625 0 0.00966797 0.0290039 0.0386719 0 -0.0418945 -0.0805664 -0.093457 -0.0805664 -0.0418945 0.00322266 0.0483398 0.0483398 0.0386719 0.00966797 -0.0257812 -0.0837891 -0.0999023 -0.0644531 -0.0418945 0.00966797 0.0225586 0.0386719 0.00966797 0.00966797 -0.0257812 -0.0515625 -0.0741211 -0.0515625 -0.0257812 0.00966797 0.0225586 0.0483398 0.0386719 0.00322266 -0.0257812 0 -0.093457 -0.0644531 -0.0257812 0 0.0451172 0.0483398 0.0225586 -0.00322266 -0.0515625 -0.0805664 -0.093457 -0.0805664 -0.0515625 0 0.00966797 0.0290039 0.0386719 0 -0.0418945 -0.0805664 -0.093457 -0.0805664 -0.0418945 0.00322266 0.0483398 0.0483398 0.0386719 0.00966797 -0.0257812 -0.0837891 -0.0999023 -0.0644531 -0.0418945 0.00966797 0.0225586 0.0386719 0.00966797 0.00966797 -0.0257812 -0.0515625 -0.0741211 -0.0515625 -0.0257812 0.00966797 0.0225586 0.0483398 0.0386719 0.00322266 -0.0257812 -0.0515625 -0.0644531 -0.0515625 -0.0257812 -0.00322266 0.0193359 0.0225586 0.0290039 0.00322266 -0.0128906 -0.0418945 -0.0515625 -0.0515625 -0.0257812 -0.00322266 0.0225586 0.0386719 0.0612305 0.00966797 -0.0225586 -0.0644531 -0.0741211 -0.0515625 -0.0322266 0.00966797 0.0483398 0.0773437 0.0483398 0 -0.0257812 -0.0580078 -0.0547852 -0.0644531 -0.0418945 0.00966797 0.0290039 0.0225586 0.0225586 0.00322266 -0.0257812 -0.0580078 -0.0741211 -0.0547852 -0.0418945 0.00322266 0.0386719 0.0290039 0.0290039 0.0193359 -0.0257812 0 -0.0644531 -0.0515625 -0.0257812 -0.00322266 0.0193359 0.0225586 0.0290039 0.00322266 -0.0128906 -0.0418945 -0.0515625 -0.0515625 -0.0257812 -0.00322266 0.0225586 0.0386719 0.0612305 0.00966797 -0.0225586 -0.0644531 -0.0741211 -0.0515625 -0.0322266 0.00966797 0.0483398 0.0773437 0.0483398 0 -0.0257812 -0.0580078 -0.0547852 -0.0644531 -0.0418945 0.00966797 0.0290039 0.0225586 0.0225586 0.00322266 -0.0257812 -0.0580078 -0.0741211 -0.0547852 -0.0418945 0.00322266 0.0386719 0.0290039 0.0290039 0.0193359 -0.0257812 -0.0644531 -0.0805664 -0.0644531 -0.0257812 0.00966797 0.0386719 0.0290039 0.0225586 0.00322266 -0.0257812 -0.0580078 -0.0644531 -0.0580078 -0.0418945 0 0.0225586 0.0451172 0.0451172 0.00322266 -0.0225586 -0.0547852 -0.0837891 -0.0644531 -0.0418945 0 0.0225586 0.0451172 0.0225586 0.00966797 -0.0257812 -0.0515625 -0.0805664 -0.0644531 -0.0418945 -0.00644531 0.0225586 0.0225586 0.0225586 0 -0.0257812 -0.0515625 -0.0644531 -0.0515625 -0.0257812 -0.0257812 0.0193359 0.0225586 0.0225586 0.00966797 -0.0128906 0 -0.0805664 -0.0644531 -0.0257812 0.00966797 0.0386719 0.0290039 0.0225586 0.00322266 -0.0257812 -0.0580078 -0.0644531 -0.0580078 -0.0418945 0 0.0225586 0.0451172 0.0451172 0.00322266 -0.0225586 -0.0547852 -0.0837891 -0.0644531 -0.0418945 0 0.0225586 0.0451172 0.0225586 0.00966797 -0.0257812 -0.0515625 -0.0805664 -0.0644531 -0.0418945 -0.00644531 0.0225586 0.0225586 0.0225586 0 -0.0257812 -0.0515625 -0.0644531 -0.0515625 -0.0257812 -0.0257812 0.0193359 0.0225586 0.0225586 0.00966797 -0.0128906 -0.0515625 -0.0805664 -0.0644531 -0.0257812 0.00966797 0.0193359 0.0386719 0.0386719 0.00966797 -0.0257812 -0.0644531 -0.0805664 -0.0644531 -0.0257812 -0.00322266 0.0225586 0.0225586 0.0225586 0.00966797 -0.0257812 -0.0644531 -0.0805664 -0.0644531 -0.0257812 0.00966797 0.0225586 0.0386719 0.0386719 0 -0.0257812 -0.0515625 -0.0515625 -0.0580078 -0.0515625 0.00322266 0.0386719 0.0483398 0.0386719 0.00966797 -0.0128906 -0.0644531 -0.0805664 -0.0644531 -0.0418945 0 0.0225586 0.0451172 0.0386719 0.00966797 -0.0257812 0 -0.0805664 -0.0644531 -0.0257812 0.00966797 0.0193359 0.0386719 0.0386719 0.00966797 -0.0257812 -0.0644531 -0.0805664 -0.0644531 -0.0257812 -0.00322266 0.0225586 0.0225586 0.0225586 0.00966797 -0.0257812 -0.0644531 -0.0805664 -0.0644531 -0.0257812 0.00966797 0.0225586 0.0386719 0.0386719 0 -0.0257812 -0.0515625 -0.0515625 -0.0580078 -0.0515625 0.00322266 0.0386719 0.0483398 0.0386719 0.00966797 -0.0128906 -0.0644531 -0.0805664 -0.0644531 -0.0418945 0 0.0225586 0.0451172 0.0386719 0.00966797 -0.0257812 -0.0580078 -0.0805664 -0.0515625 -0.0257812 -0.0128906 0.0193359 0.0483398 0.0225586 0.00966797 -0.0257812 -0.0580078 -0.0805664 -0.0805664 -0.0483398 0 0.0225586 0.0386719 0.0386719 0.00966797 -0.0128906 -0.0580078 -0.0805664 -0.0644531 -0.0418945 -0.00322266 0.0225586 0.0386719 0.0483398 0.00966797 -0.0257812 -0.0515625 -0.0741211 -0.0644531 -0.0418945 0 0.0225586 0.0386719 0.0225586 0.00966797 -0.0225586 -0.0483398 -0.0515625 -0.0515625 -0.0515625 -0.0128906 0.00966797 0.0386719 0.0290039 0.00966797 -0.0128906 0 -0.0805664 -0.0515625 -0.0257812 -0.0128906 0.0193359 0.0483398 0.0225586 0.00966797 -0.0257812 -0.0580078 -0.0805664 -0.0805664 -0.0483398 0 0.0225586 0.0386719 0.0386719 0.00966797 -0.0128906 -0.0580078 -0.0805664 -0.0644531 -0.0418945 -0.00322266 0.0225586 0.0386719 0.0483398 0.00966797 -0.0257812 -0.0515625 -0.0741211 -0.0644531 -0.0418945 0 0.0225586 0.0386719 0.0225586 0.00966797 -0.0225586 -0.0483398 -0.0515625 -0.0515625 -0.0515625 -0.0128906 0.00966797 0.0386719 0.0290039 0.00966797 -0.0128906 -0.0515625 -0.0644531 -0.0515625 -0.0257812 0 0.0225586 0.0386719 0.0386719 0.0193359 -0.0225586 -0.0515625 -0.0644531 -0.0515625 -0.0418945 -0.00322266 0.0225586 0.0483398 0.0483398 0.00966797 -0.0257812 -0.0515625 -0.0580078 -0.0580078 -0.0483398 0 0.0225586 0.0386719 0.0225586 0 -0.0128906 -0.0515625 -0.0580078 -0.0547852 -0.0515625 0 0.0225586 0.0290039 0.0193359 0.00966797 -0.0128906 -0.0418945 -0.0644531 -0.0515625 -0.0418945 -0.0128906 0.0225586 0.0386719 0.0386719 -0.00644531 -0.0257812 0 -0.0644531 -0.0515625 -0.0257812 0 0.0225586 0.0386719 0.0386719 0.0193359 -0.0225586 -0.0515625 -0.0644531 -0.0515625 -0.0418945 -0.00322266 0.0225586 0.0483398 0.0483398 0.00966797 -0.0257812 -0.0515625 -0.0580078 -0.0580078 -0.0483398 0 0.0225586 0.0386719 0.0225586 0 -0.0128906 -0.0515625 -0.0580078 -0.0547852 -0.0515625 0 0.0225586 0.0290039 0.0193359 0.00966797 -0.0128906 -0.0418945 -0.0644531 -0.0515625 -0.0418945 -0.0128906 0.0225586 0.0386719 0.0386719 -0.00644531 -0.0257812 -0.0515625 -0.0515625 -0.0515625 -0.0483398 0 0 0.0225586 0.0290039 0.00966797 -0.0257812 -0.0418945 -0.0644531 -0.0515625 -0.0322266 -0.0128906 0.0225586 0.0451172 0.0386719 0.00966797 -0.0225586 -0.0483398 -0.0644531 -0.0644531 -0.0418945 -0.00322266 0.00966797 0.0386719 0.0386719 0.00966797 -0.00644531 -0.0418945 -0.0644531 -0.0644531 -0.0515625 -0.00644531 0.00966797 0.00966797 0.0386719 0.00322266 -0.0257812 -0.0483398 -0.0580078 -0.0515625 -0.0322266 0 0.0290039 0.0451172 0.0225586 -0.00322266 -0.0418945 0 -0.0515625 -0.0515625 -0.0483398 0 0 0.0225586 0.0290039 0.00966797 -0.0257812 -0.0418945 -0.0644531 -0.0515625 -0.0322266 -0.0128906 0.0225586 0.0451172 0.0386719 0.00966797 -0.0225586 -0.0483398 -0.0644531 -0.0644531 -0.0418945 -0.00322266 0.00966797 0.0386719 0.0386719 0.00966797 -0.00644531 -0.0418945 -0.0644531 -0.0644531 -0.0515625 -0.00644531 0.00966797 0.00966797 0.0386719 0.00322266 -0.0257812 -0.0483398 -0.0580078 -0.0515625 -0.0322266 0 0.0290039 0.0451172 0.0225586 -0.00322266 -0.0418945 -0.0515625 -0.0644531 -0.0644531 -0.0418945 -0.0128906 0.00966797 0.0386719 0.0386719 0.0225586 -0.0225586 -0.0418945 -0.0515625 -0.0515625 -0.0483398 -0.0225586 0.0225586 0.0386719 0.0225586 0.0225586 -0.00322266 -0.0483398 -0.0644531 -0.0644531 -0.0418945 0 0.0225586 0.0225586 0.0290039 0.0225586 -0.0225586 -0.0515625 -0.0644531 -0.0515625 -0.0515625 0.00322266 0.00966797 0.0225586 0.0290039 0.00966797 -0.0257812 -0.0483398 -0.0580078 -0.0515625 -0.0418945 -0.00644531 0.0225586 0.0451172 0.0386719 0.00966797 -0.0257812 0 -0.0644531 -0.0644531 -0.0418945 -0.0128906 0.00966797 0.0386719 0.0386719 0.0225586 -0.0225586 -0.0418945 -0.0515625 -0.0515625 -0.0483398 -0.0225586 0.0225586 0.0386719 0.0225586 0.0225586 -0.00322266 -0.0483398 -0.0644531 -0.0644531 -0.0418945 0 0.0225586 0.0225586 0.0290039 0.0225586 -0.0225586 -0.0515625 -0.0644531 -0.0515625 -0.0515625 0.00322266 0.00966797 0.0225586 0.0290039 0.00966797 -0.0257812 -0.0483398 -0.0580078 -0.0515625 -0.0418945 -0.00644531 0.0225586 0.0451172 0.0386719 0.00966797 -0.0257812 -0.0483398 -0.0515625 -0.0515625 -0.0418945 0 0.00966797 0.0225586 0.0225586 0.00322266 -0.0257812 -0.0483398 -0.0644531 -0.0547852 -0.0483398 -0.00322266 0.0225586 0.0386719 0.0386719 0.0290039 -0.0128906 -0.0483398 -0.0805664 -0.0644531 -0.0483398 0 0.0225586 0.0483398 0.0193359 0.00966797 -0.0257812 -0.0515625 -0.0644531 -0.0644531 -0.0483398 -0.0225586 0.00966797 0.0290039 0.0225586 0.0193359 -0.0128906 -0.0515625 -0.0741211 -0.0644531 -0.0483398 0 0.0193359 0.0386719 0.0225586 0.0225586 -0.0128906 0 -0.0515625 -0.0515625 -0.0418945 0 0.00966797 0.0225586 0.0225586 0.00322266 -0.0257812 -0.0483398 -0.0644531 -0.0547852 -0.0483398 -0.00322266 0.0225586 0.0386719 0.0386719 0.0290039 -0.0128906 -0.0483398 -0.0805664 -0.0644531 -0.0483398 0 0.0225586 0.0483398 0.0193359 0.00966797 -0.0257812 -0.0515625 -0.0644531 -0.0644531 -0.0483398 -0.0225586 0.00966797 0.0290039 0.0225586 0.0193359 -0.0128906 -0.0515625 -0.0741211 -0.0644531 -0.0483398 0 0.0193359 0.0386719 0.0225586 0.0225586 -0.0128906 -0.0580078 -0.0644531 -0.0483398 -0.0257812 -0.00644531 0.00966797 0.0386719 0.0386719 0.00322266 -0.00644531 -0.0515625 -0.0805664 -0.0515625 -0.0515625 -0.00644531 0.0225586 0.0290039 0.0193359 0.00322266 -0.0128906 -0.0515625 -0.0580078 -0.0741211 -0.0418945 -0.00644531 0.0128906 0.0386719 0.0386719 0.00966797 -0.00322266 -0.0515625 -0.0644531 -0.0644531 -0.0483398 -0.00644531 0.0193359 0.0225586 0.0225586 0.0193359 -0.0128906 -0.0483398 -0.0515625 -0.0515625 -0.0257812 -0.00322266 0.0225586 0.0225586 0.0290039 0.0225586 -0.0225586 0 -0.0644531 -0.0483398 -0.0257812 -0.00644531 0.00966797 0.0386719 0.0386719 0.00322266 -0.00644531 -0.0515625 -0.0805664 -0.0515625 -0.0515625 -0.00644531 0.0225586 0.0290039 0.0193359 0.00322266 -0.0128906 -0.0515625 -0.0580078 -0.0741211 -0.0418945 -0.00644531 0.0128906 0.0386719 0.0386719 0.00966797 -0.00322266 -0.0515625 -0.0644531 -0.0644531 -0.0483398 -0.00644531 0.0193359 0.0225586 0.0225586 0.0193359 -0.0128906 -0.0483398 -0.0515625 -0.0515625 -0.0257812 -0.00322266 0.0225586 0.0225586 0.0290039 0.0225586 -0.0225586 -0.0418945 -0.0644531 -0.0580078 -0.0483398 -0.00644531 0.00966797 0.0225586 0.0290039 0.00966797 -0.0128906 -0.0418945 -0.0515625 -0.0580078 -0.0515625 -0.00322266 0 0.0386719 0.0225586 0.00322266 -0.00322266 -0.0418945 -0.0644531 -0.0515625 -0.00644531 -0.00322266 0 0.0225586 0.00322266 0.00322266 -0.0257812 -0.0580078 -0.0515625 -0.0580078 -0.0483398 -0.00644531 0.00966797 0.0451172 0.0451172 0.0225586 -0.0257812 -0.0418945 -0.0805664 -0.0515625 -0.0418945 -0.00644531 0.0225586 0.0290039 0.0225586 0.00966797 -0.0128906 0 -0.0644531 -0.0580078 -0.0483398 -0.00644531 0.00966797 0.0225586 0.0290039 0.00966797 -0.0128906 -0.0418945 -0.0515625 -0.0580078 -0.0515625 -0.00322266 0 0.0386719 0.0225586 0.00322266 -0.00322266 -0.0418945 -0.0644531 -0.0515625 -0.00644531 -0.00322266 0 0.0225586 0.00322266 0.00322266 -0.0257812 -0.0580078 -0.0515625 -0.0580078 -0.0483398 -0.00644531 0.00966797 0.0451172 0.0451172 0.0225586 -0.0257812 -0.0418945 -0.0805664 -0.0515625 -0.0418945 -0.00644531 0.0225586 0.0290039 0.0225586 0.00966797 -0.0128906 -0.0515625 -0.0644531 -0.0515625 -0.0418945 -0.00322266 0.0225586 0.0225586 0.0225586 0.00966797 -0.0257812 -0.0515625 -0.0644531 -0.0515625 -0.0483398 0.00322266 0.0225586 0.0290039 0.0225586 0.0193359 -0.0257812 -0.0483398 -0.0741211 -0.0580078 -0.0418945 -0.0225586 0.0225586 0.0386719 0.0290039 0.0193359 -0.0128906 -0.0483398 -0.0515625 -0.0515625 -0.0257812 -0.00322266 0.0225586 0.0290039 0.0290039 0.0225586 -0.0128906 -0.0515625 -0.0644531 -0.0741211 -0.0483398 -0.00322266 0.0386719 0.0483398 0.0225586 -0.00322266 -0.0257812 0 